0,1,2,3,4,5,6
0,1,1,0,0,439,0
1,1,1,0,0,439,0
2,1,1,0,0,438,0
3,1,1,0,0,436,0
4,1,1,0,0,435,0
5,1,1,0,0,435,0
6,1,1,0,0,435,0
7,1,1,0,0,437,0
8,1,1,0,0,441,0
9,1,1,0,0,444,0
10,1,1,0,0,447,0
11,1,1,0,0,451,0
12,1,1,0,0,453,0
13,1,1,0,0,453,0
14,1,1,0,0,452,0
15,1,1,0,0,451,0
0,1,1,0,0,450,0
1,1,1,0,0,447,0
2,1,1,0,0,443,0
3,1,1,0,0,437,0
4,1,1,0,0,431,0
5,1,1,0,0,425,0
6,1,1,0,0,419,0
7,1,1,0,0,412,0
8,1,1,0,0,406,0
9,1,1,0,0,402,0
10,1,1,0,0,401,0
11,1,1,0,0,403,0
12,1,1,0,0,408,0
13,1,1,0,0,413,0
14,1,1,0,0,421,0
15,1,1,0,0,429,0
0,1,1,0,0,436,0
1,1,1,0,0,443,0
2,1,1,0,0,443,0
3,1,1,0,0,441,0
4,1,1,0,0,437,0
5,1,1,0,0,434,0
6,1,1,0,0,431,0
7,1,1,0,0,430,0
8,1,1,0,0,427,0
9,1,1,0,0,423,0
10,1,1,0,0,417,0
11,1,1,0,0,411,0
12,1,1,0,0,405,0
13,1,1,0,0,400,0
14,1,1,0,0,396,0
15,1,1,0,0,393,0
0,1,1,0,0,390,0
1,1,1,0,0,390,0
2,1,1,0,0,389,0
3,1,1,0,0,390,0
4,1,1,0,0,391,0
5,1,1,0,0,390,0
6,1,1,0,0,390,0
7,1,1,0,0,388,0
8,1,1,0,0,386,0
9,1,1,0,0,382,0
10,1,1,0,0,376,0
11,1,1,0,0,371,0
12,1,1,0,0,365,0
13,1,1,0,0,359,0
14,1,1,0,0,357,0
15,1,1,0,0,356,0
0,1,1,0,0,359,0
1,1,1,0,0,363,0
2,1,1,0,0,367,0
3,1,1,0,0,371,0
4,1,1,0,0,376,0
5,1,1,0,0,380,0
6,1,1,0,0,384,0
7,1,1,0,0,387,0
8,1,1,0,0,390,0
9,1,1,0,0,391,0
10,1,1,0,0,395,0
11,1,1,0,0,399,0
12,1,1,0,0,403,0
13,1,1,0,0,407,0
14,1,1,0,0,411,0
15,1,1,0,0,414,0
0,1,1,0,0,417,0
1,1,1,0,0,420,0
2,1,1,0,0,423,0
3,1,1,0,0,427,0
4,1,1,0,0,427,0
5,1,1,0,0,427,0
6,1,1,0,0,427,0
7,1,1,0,0,427,0
8,1,1,0,0,430,0
9,1,1,0,0,434,0
10,1,1,0,0,438,0
11,1,1,0,0,441,0
12,1,1,0,0,443,0
13,1,1,0,0,443,0
14,1,1,0,0,442,0
15,1,1,0,0,439,0
0,1,1,0,0,437,0
1,1,1,0,0,440,0
2,1,1,0,0,442,0
3,1,1,0,0,444,0
4,1,1,0,0,447,0
5,1,1,0,0,449,0
6,1,1,0,0,451,0
7,1,1,0,0,451,0
8,1,1,0,0,452,0
9,1,1,0,0,452,0
10,1,1,0,0,452,0
11,1,1,0,0,451,0
12,1,1,0,0,450,0
13,1,1,0,0,448,0
14,1,1,0,0,448,0
15,1,1,0,0,448,0
0,1,1,0,0,448,0
1,1,1,0,0,447,0
2,1,1,0,0,448,0
3,1,1,0,0,448,0
4,1,1,0,0,448,0
5,1,1,0,0,450,0
6,1,1,0,0,451,0
7,1,1,0,0,451,0
8,1,1,0,0,450,0
9,1,1,0,0,448,0
10,1,1,0,0,444,0
11,1,1,0,0,440,0
12,1,1,0,0,438,0
13,1,1,0,0,436,0
14,1,1,0,0,435,0
15,1,1,0,0,435,0
0,1,1,0,0,436,0
1,1,1,0,0,439,0
2,1,1,0,0,440,0
3,1,1,0,0,443,0
4,1,1,0,0,448,0
5,1,1,0,0,454,0
6,1,1,0,0,460,0
7,1,1,0,0,464,0
8,1,1,0,0,467,0
9,1,1,0,0,470,0
10,1,1,0,0,471,0
11,1,1,0,0,469,0
12,1,1,0,0,468,0
13,1,1,0,0,465,0
14,1,1,0,0,461,0
15,1,1,0,0,455,0
0,1,1,0,0,450,0
1,1,1,0,0,449,0
2,1,1,0,0,449,0
3,1,1,0,0,451,0
4,1,1,0,0,454,0
5,1,1,0,0,458,0
6,1,1,0,0,464,0
7,1,1,0,0,472,0
8,1,1,0,0,483,0
9,1,1,0,0,493,0
10,1,1,0,0,502,0
11,1,1,0,0,510,0
12,1,1,0,0,518,0
13,1,1,0,0,527,0
14,1,1,0,0,534,0
15,1,1,0,0,541,0
0,1,1,0,0,546,0
1,1,1,0,0,553,0
2,1,1,0,0,559,0
3,1,1,0,0,566,0
4,1,1,0,0,571,0
5,1,1,0,0,575,0
6,1,1,0,0,579,0
7,1,1,0,0,579,0
8,1,1,0,0,580,0
9,1,1,0,0,581,0
10,1,1,0,0,581,0
11,1,1,0,0,582,0
12,1,1,0,0,583,0
13,1,1,0,0,583,0
14,1,1,0,0,583,0
15,1,1,0,0,584,0
0,1,1,0,0,587,0
1,1,1,0,0,589,0
2,1,1,0,0,590,0
3,1,1,0,0,589,0
4,1,1,0,0,586,0
5,1,1,0,0,579,0
6,1,1,0,0,572,0
7,1,1,0,0,567,0
8,1,1,0,0,561,0
9,1,1,0,0,558,0
10,1,1,0,0,555,0
11,1,1,0,0,552,0
12,1,1,0,0,550,0
13,1,1,0,0,548,0
14,1,1,0,0,550,0
15,1,1,0,0,554,0
0,1,1,0,0,560,0
1,1,1,0,0,566,0
2,1,1,0,0,571,0
3,1,1,0,0,573,0
4,1,1,0,0,575,0
5,1,1,0,0,577,0
6,1,1,0,0,577,0
7,1,1,0,0,572,0
8,1,1,0,0,563,0
9,1,1,0,0,553,0
10,1,1,0,0,540,0
11,1,1,0,0,528,0
12,1,1,0,0,518,0
13,1,1,0,0,510,0
14,1,1,0,0,502,0
15,1,1,0,0,498,0
0,1,1,0,0,497,0
1,1,1,0,0,499,0
2,1,1,0,0,505,0
3,1,1,0,0,512,0
4,1,1,0,0,518,0
5,1,1,0,0,526,0
6,1,1,0,0,534,0
7,1,1,0,0,542,0
8,1,1,0,0,547,0
9,1,1,0,0,552,0
10,1,1,0,0,556,0
11,1,1,0,0,560,0
12,1,1,0,0,563,0
13,1,1,0,0,564,0
14,1,1,0,0,563,0
15,1,1,0,0,560,0
0,1,1,0,0,560,0
1,1,1,0,0,561,0
2,1,1,0,0,563,0
3,1,1,0,0,563,0
4,1,1,0,0,564,0
5,1,1,0,0,565,0
6,1,1,0,0,564,0
7,1,1,0,0,565,0
8,1,1,0,0,567,0
9,1,1,0,0,568,0
10,1,1,0,0,570,0
11,1,1,0,0,571,0
12,1,1,0,0,571,0
13,1,1,0,0,572,0
14,1,1,0,0,572,0
15,1,1,0,0,571,0
0,1,1,0,0,571,0
1,1,1,0,0,571,0
2,1,1,0,0,571,0
3,1,1,0,0,572,0
4,1,1,0,0,574,0
5,1,1,0,0,576,0
6,1,1,0,0,577,0
7,1,1,0,0,580,0
8,1,1,0,0,584,0
9,1,1,0,0,587,0
10,1,1,0,0,589,0
11,1,1,0,0,592,0
12,1,1,0,0,594,0
13,1,1,0,0,595,0
14,1,1,0,0,596,0
15,1,1,0,0,594,0
0,1,1,0,0,591,0
1,1,1,0,0,588,0
2,1,1,0,0,582,0
3,1,1,0,0,577,0
4,1,1,0,0,574,0
5,1,1,0,0,572,0
6,1,1,0,0,570,0
7,1,1,0,0,568,0
8,1,1,0,0,568,0
9,1,1,0,0,568,0
10,1,1,0,0,567,0
11,1,1,0,0,566,0
12,1,1,0,0,566,0
13,1,1,0,0,566,0
14,1,1,0,0,568,0
15,1,1,0,0,570,0
0,1,1,0,0,572,0
1,1,1,0,0,574,0
2,1,1,0,0,575,0
3,1,1,0,0,576,0
4,1,1,0,0,576,0
5,1,1,0,0,576,0
6,1,1,0,0,577,0
7,1,1,0,0,576,0
8,1,1,0,0,575,0
9,1,1,0,0,573,0
10,1,1,0,0,571,0
11,1,1,0,0,568,0
12,1,1,0,0,567,0
13,1,1,0,0,566,0
14,1,1,0,0,565,0
15,1,1,0,0,565,0
0,1,1,0,0,567,0
1,1,1,0,0,570,0
2,1,1,0,0,572,0
3,1,1,0,0,575,0
4,1,1,0,0,578,0
5,1,1,0,0,580,0
6,1,1,0,0,582,0
7,1,1,0,0,583,0
8,1,1,0,0,585,0
9,1,1,0,0,588,0
10,1,1,0,0,591,0
11,1,1,0,0,590,0
12,1,1,0,0,590,0
13,1,1,0,0,588,0
14,1,1,0,0,584,0
15,1,1,0,0,581,0
0,1,1,0,0,578,0
1,1,1,0,0,576,0
2,1,1,0,0,575,0
3,1,1,0,0,574,0
4,1,1,0,0,574,0
5,1,1,0,0,573,0
6,1,1,0,0,575,0
7,1,1,0,0,576,0
8,1,1,0,0,578,0
9,1,1,0,0,580,0
10,1,1,0,0,581,0
11,1,1,0,0,583,0
12,1,1,0,0,583,0
13,1,1,0,0,582,0
14,1,1,0,0,581,0
15,1,1,0,0,577,0
0,1,1,0,0,574,0
1,1,1,0,0,570,0
2,1,1,0,0,565,0
3,1,1,0,0,560,0
4,1,1,0,0,556,0
5,1,1,0,0,551,0
6,1,1,0,0,547,0
7,1,1,0,0,543,0
8,1,1,0,0,540,0
9,1,1,0,0,538,0
10,1,1,0,0,537,0
11,1,1,0,0,539,0
12,1,1,0,0,543,0
13,1,1,0,0,547,0
14,1,1,0,0,551,0
15,1,1,0,0,555,0
0,1,1,0,0,559,0
1,1,1,0,0,563,0
2,1,1,0,0,568,0
3,1,1,0,0,568,0
4,1,1,0,0,567,0
5,1,1,0,0,565,0
6,1,1,0,0,561,0
7,1,1,0,0,557,0
8,1,1,0,0,554,0
9,1,1,0,0,552,0
10,1,1,0,0,548,0
11,1,1,0,0,544,0
12,1,1,0,0,541,0
13,1,1,0,0,539,0
14,1,1,0,0,538,0
15,1,1,0,0,539,0
0,1,1,0,0,539,0
1,1,1,0,0,540,0
2,1,1,0,0,540,0
3,1,1,0,0,540,0
4,1,1,0,0,539,0
5,1,1,0,0,536,0
6,1,1,0,0,534,0
7,1,1,0,0,531,0
8,1,1,0,0,527,0
9,1,1,0,0,524,0
10,1,1,0,0,519,0
11,1,1,0,0,515,0
12,1,1,0,0,512,0
13,1,1,0,0,508,0
14,1,1,0,0,505,0
15,1,1,0,0,501,0
0,1,1,0,0,499,0
1,1,1,0,0,499,0
2,1,1,0,0,500,0
3,1,1,0,0,502,0
4,1,1,0,0,503,0
5,1,1,0,0,504,0
6,1,1,0,0,505,0
7,1,1,0,0,505,0
8,1,1,0,0,505,0
9,1,1,0,0,505,0
10,1,1,0,0,506,0
11,1,1,0,0,506,0
12,1,1,0,0,504,0
13,1,1,0,0,503,0
14,1,1,0,0,500,0
15,1,1,0,0,498,0
0,1,1,0,0,497,0
1,1,1,0,0,496,0
2,1,1,0,0,495,0
3,1,1,0,0,493,0
4,1,1,0,0,492,0
5,1,1,0,0,490,0
6,1,1,0,0,489,0
7,1,1,0,0,490,0
8,1,1,0,0,490,0
9,1,1,0,0,488,0
10,1,1,0,0,488,0
11,1,1,0,0,488,0
12,1,1,0,0,487,0
13,1,1,0,0,487,0
14,1,1,0,0,488,0
15,1,1,0,0,487,0
0,1,1,0,0,486,0
1,1,1,0,0,484,0
2,1,1,0,0,484,0
3,1,1,0,0,480,0
4,1,1,0,0,479,0
5,1,1,0,0,479,0
6,1,1,0,0,479,0
7,1,1,0,0,479,0
8,1,1,0,0,480,0
9,1,1,0,0,480,0
10,1,1,0,0,482,0
11,1,1,0,0,486,0
12,1,1,0,0,487,0
13,1,1,0,0,489,0
14,1,1,0,0,491,0
15,1,1,0,0,491,0
0,1,1,0,0,490,0
1,1,1,0,0,490,0
2,1,1,0,0,490,0
3,1,1,0,0,488,0
4,1,1,0,0,486,0
5,1,1,0,0,483,0
6,1,1,0,0,480,0
7,1,1,0,0,476,0
8,1,1,0,0,472,0
9,1,1,0,0,469,0
10,1,1,0,0,467,0
11,1,1,0,0,466,0
12,1,1,0,0,465,0
13,1,1,0,0,466,0
14,1,1,0,0,468,0
15,1,1,0,0,471,0
0,1,1,0,0,475,0
1,1,1,0,0,478,0
2,1,1,0,0,480,0
3,1,1,0,0,480,0
4,1,1,0,0,480,0
5,1,1,0,0,480,0
6,1,1,0,0,480,0
7,1,1,0,0,479,0
8,1,1,0,0,476,0
9,1,1,0,0,473,0
10,1,1,0,0,470,0
11,1,1,0,0,466,0
12,1,1,0,0,463,0
13,1,1,0,0,460,0
14,1,1,0,0,457,0
15,1,1,0,0,456,0
0,1,1,0,0,456,0
1,1,1,0,0,457,0
2,1,1,0,0,459,0
3,1,1,0,0,461,0
4,1,1,0,0,464,0
5,1,1,0,0,467,0
6,1,1,0,0,468,0
7,1,1,0,0,468,0
8,1,1,0,0,468,0
9,1,1,0,0,468,0
10,1,1,0,0,468,0
11,1,1,0,0,467,0
12,1,1,0,0,464,0
13,1,1,0,0,462,0
14,1,1,0,0,460,0
15,1,1,0,0,457,0
0,1,1,0,0,455,0
1,1,1,0,0,455,0
2,1,1,0,0,454,0
3,1,1,0,0,454,0
4,1,1,0,0,454,0
5,1,1,0,0,455,0
6,1,1,0,0,457,0
7,1,1,0,0,460,0
8,1,1,0,0,463,0
9,1,1,0,0,466,0
10,1,1,0,0,468,0
11,1,1,0,0,470,0
12,1,1,0,0,470,0
13,1,1,0,0,471,0
14,1,1,0,0,472,0
15,1,1,0,0,471,0
0,1,1,0,0,470,0
1,1,1,0,0,467,0
2,1,1,0,0,465,0
3,1,1,0,0,462,0
4,1,1,0,0,460,0
5,1,1,0,0,459,0
6,1,1,0,0,457,0
7,1,1,0,0,455,0
8,1,1,0,0,455,0
9,1,1,0,0,456,0
10,1,1,0,0,457,0
11,1,1,0,0,459,0
12,1,1,0,0,460,0
13,1,1,0,0,461,0
14,1,1,0,0,462,0
15,1,1,0,0,463,0
0,1,1,0,0,463,0
1,1,1,0,0,464,0
2,1,1,0,0,464,0
3,1,1,0,0,463,0
4,1,1,0,0,460,0
5,1,1,0,0,458,0
6,1,1,0,0,456,0
7,1,1,0,0,454,0
8,1,1,0,0,453,0
9,1,1,0,0,452,0
10,1,1,0,0,451,0
11,1,1,0,0,453,0
12,1,1,0,0,454,0
13,1,1,0,0,457,0
14,1,1,0,0,461,0
15,1,1,0,0,465,0
0,1,1,0,0,471,0
1,1,1,0,0,475,0
2,1,1,0,0,479,0
3,1,1,0,0,481,0
4,1,1,0,0,483,0
5,1,1,0,0,485,0
6,1,1,0,0,486,0
7,1,1,0,0,485,0
8,1,1,0,0,483,0
9,1,1,0,0,480,0
10,1,1,0,0,478,0
11,1,1,0,0,477,0
12,1,1,0,0,476,0
13,1,1,0,0,476,0
14,1,1,0,0,476,0
15,1,1,0,0,475,0
0,1,1,0,0,475,0
1,1,1,0,0,477,0
2,1,1,0,0,479,0
3,1,1,0,0,483,0
4,1,1,0,0,487,0
5,1,1,0,0,490,0
6,1,1,0,0,492,0
7,1,1,0,0,493,0
8,1,1,0,0,494,0
9,1,1,0,0,495,0
10,1,1,0,0,495,0
11,1,1,0,0,496,0
12,1,1,0,0,495,0
13,1,1,0,0,494,0
14,1,1,0,0,492,0
15,1,1,0,0,489,0
0,1,1,0,0,487,0
1,1,1,0,0,487,0
2,1,1,0,0,487,0
3,1,1,0,0,486,0
4,1,1,0,0,487,0
5,1,1,0,0,487,0
6,1,1,0,0,489,0
7,1,1,0,0,492,0
8,1,1,0,0,495,0
9,1,1,0,0,497,0
10,1,1,0,0,499,0
11,1,1,0,0,502,0
12,1,1,0,0,504,0
13,1,1,0,0,505,0
14,1,1,0,0,505,0
15,1,1,0,0,504,0
0,1,1,0,0,502,0
1,1,1,0,0,499,0
2,1,1,0,0,496,0
3,1,1,0,0,492,0
4,1,1,0,0,488,0
5,1,1,0,0,486,0
6,1,1,0,0,485,0
7,1,1,0,0,484,0
8,1,1,0,0,484,0
9,1,1,0,0,486,0
10,1,1,0,0,487,0
11,1,1,0,0,491,0
12,1,1,0,0,493,0
13,1,1,0,0,496,0
14,1,1,0,0,497,0
15,1,1,0,0,498,0
0,1,1,0,0,499,0
1,1,1,0,0,499,0
2,1,1,0,0,500,0
3,1,1,0,0,499,0
4,1,1,0,0,497,0
5,1,1,0,0,496,0
6,1,1,0,0,495,0
7,1,1,0,0,494,0
8,1,1,0,0,494,0
9,1,1,0,0,492,0
10,1,1,0,0,492,0
11,1,1,0,0,493,0
12,1,1,0,0,495,0
13,1,1,0,0,497,0
14,1,1,0,0,500,0
15,1,1,0,0,504,0
0,1,1,0,0,507,0
1,1,1,0,0,510,0
2,1,1,0,0,512,0
3,1,1,0,0,513,0
4,1,1,0,0,514,0
5,1,1,0,0,515,0
6,1,1,0,0,515,0
7,1,1,0,0,515,0
8,1,1,0,0,514,0
9,1,1,0,0,512,0
10,1,1,0,0,511,0
11,1,1,0,0,508,0
12,1,1,0,0,507,0
13,1,1,0,0,507,0
14,1,1,0,0,506,0
15,1,1,0,0,506,0
0,1,1,0,0,508,0
1,1,1,0,0,511,0
2,1,1,0,0,513,0
3,1,1,0,0,517,0
4,1,1,0,0,521,0
5,1,1,0,0,524,0
6,1,1,0,0,527,0
7,1,1,0,0,528,0
8,1,1,0,0,531,0
9,1,1,0,0,533,0
10,1,1,0,0,534,0
11,1,1,0,0,534,0
12,1,1,0,0,531,0
13,1,1,0,0,527,0
14,1,1,0,0,523,0
15,1,1,0,0,518,0
0,1,1,0,0,513,0
1,1,1,0,0,507,0
2,1,1,0,0,500,0
3,1,1,0,0,491,0
4,1,1,0,0,482,0
5,1,1,0,0,473,0
6,1,1,0,0,466,0
7,1,1,0,0,460,0
8,1,1,0,0,455,0
9,1,1,0,0,449,0
10,1,1,0,0,443,0
11,1,1,0,0,437,0
12,1,1,0,0,432,0
13,1,1,0,0,428,0
14,1,1,0,0,425,0
15,1,1,0,0,422,0
0,1,1,0,0,416,0
1,1,1,0,0,410,0
2,1,1,0,0,403,0
3,1,1,0,0,397,0
4,1,1,0,0,392,0
5,1,1,0,0,391,0
6,1,1,0,0,392,0
7,1,1,0,0,396,0
8,1,1,0,0,405,0
9,1,1,0,0,419,0
10,1,1,0,0,438,0
11,1,1,0,0,460,0
12,1,1,0,0,481,0
13,1,1,0,0,504,0
14,1,1,0,0,526,0
15,1,1,0,0,545,0
0,1,1,0,0,564,0
1,1,1,0,0,589,0
2,1,1,0,0,618,0
3,1,1,0,0,649,0
4,1,1,0,0,681,0
5,1,1,0,0,712,0
6,1,1,0,0,746,0
7,1,1,0,0,778,0
8,1,1,0,0,807,0
9,1,1,0,0,828,0
10,1,1,0,0,844,0
11,1,1,0,0,853,0
12,1,1,0,0,859,0
13,1,1,0,0,860,0
14,1,1,0,0,863,0
15,1,1,0,0,867,0
0,1,1,0,0,870,0
1,1,1,0,0,869,0
2,1,1,0,0,864,0
3,1,1,0,0,854,0
4,1,1,0,0,842,0
5,1,1,0,0,829,0
6,1,1,0,0,815,0
7,1,1,0,0,794,0
8,1,1,0,0,774,0
9,1,1,0,0,752,0
10,1,1,0,0,729,0
11,1,1,0,0,704,0
12,1,1,0,0,677,0
13,1,1,0,0,651,0
14,1,1,0,0,626,0
15,1,1,0,0,600,0
0,1,1,0,0,578,0
1,1,1,0,0,559,0
2,1,1,0,0,546,0
3,1,1,0,0,535,0
4,1,1,0,0,524,0
5,1,1,0,0,513,0
6,1,1,0,0,504,0
7,1,1,0,0,495,0
8,1,1,0,0,487,0
9,1,1,0,0,480,0
10,1,1,0,0,474,0
11,1,1,0,0,468,0
12,1,1,0,0,461,0
13,1,1,0,0,455,0
14,1,1,0,0,449,0
15,1,1,0,0,444,0
0,1,1,0,0,441,0
1,1,1,0,0,438,0
2,1,1,0,0,435,0
3,1,1,0,0,432,0
4,1,1,0,0,432,0
5,1,1,0,0,431,0
6,1,1,0,0,432,0
7,1,1,0,0,434,0
8,1,1,0,0,437,0
9,1,1,0,0,440,0
10,1,1,0,0,442,0
11,1,1,0,0,443,0
12,1,1,0,0,444,0
13,1,1,0,0,444,0
14,1,1,0,0,445,0
15,1,1,0,0,443,0
0,1,1,0,0,441,0
1,1,1,0,0,439,0
2,1,1,0,0,436,0
3,1,1,0,0,434,0
4,1,1,0,0,432,0
5,1,1,0,0,431,0
6,1,1,0,0,429,0
7,1,1,0,0,428,0
8,1,1,0,0,428,0
9,1,1,0,0,430,0
10,1,1,0,0,431,0
11,1,1,0,0,435,0
12,1,1,0,0,437,0
13,1,1,0,0,439,0
14,1,1,0,0,439,0
15,1,1,0,0,438,0
0,1,1,0,0,438,0
1,1,1,0,0,439,0
2,1,1,0,0,440,0
3,1,1,0,0,439,0
4,1,1,0,0,439,0
5,1,1,0,0,438,0
6,1,1,0,0,436,0
7,1,1,0,0,435,0
8,1,1,0,0,433,0
9,1,1,0,0,433,0
10,1,1,0,0,433,0
11,1,1,0,0,431,0
12,1,1,0,0,432,0
13,1,1,0,0,434,0
14,1,1,0,0,437,0
15,1,1,0,0,440,0
0,1,1,0,0,443,0
1,1,1,0,0,446,0
2,1,1,0,0,449,0
3,1,1,0,0,451,0
4,1,1,0,0,453,0
5,1,1,0,0,454,0
6,1,1,0,0,456,0
7,1,1,0,0,456,0
8,1,1,0,0,455,0
9,1,1,0,0,453,0
10,1,1,0,0,452,0
11,1,1,0,0,451,0
12,1,1,0,0,450,0
13,1,1,0,0,451,0
14,1,1,0,0,451,0
15,1,1,0,0,450,0
0,1,1,0,0,450,0
1,1,1,0,0,451,0
2,1,1,0,0,453,0
3,1,1,0,0,456,0
4,1,1,0,0,460,0
5,1,1,0,0,463,0
6,1,1,0,0,465,0
7,1,1,0,0,466,0
8,1,1,0,0,467,0
9,1,1,0,0,468,0
10,1,1,0,0,470,0
11,1,1,0,0,470,0
12,1,1,0,0,469,0
13,1,1,0,0,467,0
14,1,1,0,0,466,0
15,1,1,0,0,463,0
0,1,1,0,0,461,0
1,1,1,0,0,461,0
2,1,1,0,0,461,0
3,1,1,0,0,462,0
4,1,1,0,0,463,0
5,1,1,0,0,465,0
6,1,1,0,0,467,0
7,1,1,0,0,469,0
8,1,1,0,0,472,0
9,1,1,0,0,476,0
10,1,1,0,0,479,0
11,1,1,0,0,480,0
12,1,1,0,0,482,0
13,1,1,0,0,483,0
14,1,1,0,0,484,0
15,1,1,0,0,483,0
0,1,1,0,0,481,0
1,1,1,0,0,480,0
2,1,1,0,0,477,0
3,1,1,0,0,475,0
4,1,1,0,0,472,0
5,1,1,0,0,470,0
6,1,1,0,0,469,0
7,1,1,0,0,469,0
8,1,1,0,0,469,0
9,1,1,0,0,471,0
10,1,1,0,0,473,0
11,1,1,0,0,476,0
12,1,1,0,0,480,0
13,1,1,0,0,482,0
14,1,1,0,0,484,0
15,1,1,0,0,486,0
0,1,1,0,0,487,0
1,1,1,0,0,488,0
2,1,1,0,0,490,0
3,1,1,0,0,489,0
4,1,1,0,0,487,0
5,1,1,0,0,485,0
6,1,1,0,0,483,0
7,1,1,0,0,481,0
8,1,1,0,0,480,0
9,1,1,0,0,478,0
10,1,1,0,0,478,0
11,1,1,0,0,477,0
12,1,1,0,0,477,0
13,1,1,0,0,478,0
14,1,1,0,0,480,0
15,1,1,0,0,483,0
0,1,1,0,0,486,0
1,1,1,0,0,488,0
2,1,1,0,0,491,0
3,1,1,0,0,492,0
4,1,1,0,0,493,0
5,1,1,0,0,493,0
6,1,1,0,0,494,0
7,1,1,0,0,492,0
8,1,1,0,0,491,0
9,1,1,0,0,488,0
10,1,1,0,0,486,0
11,1,1,0,0,484,0
12,1,1,0,0,482,0
13,1,1,0,0,481,0
14,1,1,0,0,480,0
15,1,1,0,0,479,0
0,1,1,0,0,480,0
1,1,1,0,0,480,0
2,1,1,0,0,482,0
3,1,1,0,0,485,0
4,1,1,0,0,487,0
5,1,1,0,0,490,0
6,1,1,0,0,492,0
7,1,1,0,0,492,0
8,1,1,0,0,493,0
9,1,1,0,0,493,0
10,1,1,0,0,493,0
11,1,1,0,0,491,0
12,1,1,0,0,489,0
13,1,1,0,0,486,0
14,1,1,0,0,484,0
15,1,1,0,0,481,0
0,1,1,0,0,478,0
1,1,1,0,0,477,0
2,1,1,0,0,475,0
3,1,1,0,0,473,0
4,1,1,0,0,472,0
5,1,1,0,0,472,0
6,1,1,0,0,473,0
7,1,1,0,0,475,0
8,1,1,0,0,477,0
9,1,1,0,0,480,0
10,1,1,0,0,481,0
11,1,1,0,0,481,0
12,1,1,0,0,482,0
13,1,1,0,0,482,0
14,1,1,0,0,481,0
15,1,1,0,0,480,0
0,1,1,0,0,478,0
1,1,1,0,0,476,0
2,1,1,0,0,473,0
3,1,1,0,0,470,0
4,1,1,0,0,467,0
5,1,1,0,0,466,0
6,1,1,0,0,464,0
7,1,1,0,0,463,0
8,1,1,0,0,461,0
9,1,1,0,0,461,0
10,1,1,0,0,463,0
11,1,1,0,0,466,0
12,1,1,0,0,469,0
13,1,1,0,0,472,0
14,1,1,0,0,475,0
15,1,1,0,0,476,0
0,1,1,0,0,477,0
1,1,1,0,0,478,0
2,1,1,0,0,478,0
3,1,1,0,0,477,0
4,1,1,0,0,476,0
5,1,1,0,0,473,0
6,1,1,0,0,472,0
7,1,1,0,0,468,0
8,1,1,0,0,466,0
9,1,1,0,0,465,0
10,1,1,0,0,466,0
11,1,1,0,0,466,0
12,1,1,0,0,467,0
13,1,1,0,0,469,0
14,1,1,0,0,473,0
15,1,1,0,0,477,0
0,1,1,0,0,481,0
1,1,1,0,0,485,0
2,1,1,0,0,488,0
3,1,1,0,0,491,0
4,1,1,0,0,493,0
5,1,1,0,0,495,0
6,1,1,0,0,497,0
7,1,1,0,0,498,0
8,1,1,0,0,498,0
9,1,1,0,0,497,0
10,1,1,0,0,496,0
11,1,1,0,0,495,0
12,1,1,0,0,494,0
13,1,1,0,0,493,0
14,1,1,0,0,493,0
15,1,1,0,0,495,0
0,1,1,0,0,497,0
1,1,1,0,0,500,0
2,1,1,0,0,504,0
3,1,1,0,0,509,0
4,1,1,0,0,515,0
5,1,1,0,0,520,0
6,1,1,0,0,525,0
7,1,1,0,0,529,0
8,1,1,0,0,532,0
9,1,1,0,0,535,0
10,1,1,0,0,538,0
11,1,1,0,0,541,0
12,1,1,0,0,542,0
13,1,1,0,0,542,0
14,1,1,0,0,542,0
15,1,1,0,0,542,0
0,1,1,0,0,543,0
1,1,1,0,0,543,0
2,1,1,0,0,544,0
3,1,1,0,0,545,0
4,1,1,0,0,547,0
5,1,1,0,0,549,0
6,1,1,0,0,552,0
7,1,1,0,0,556,0
8,1,1,0,0,561,0
9,1,1,0,0,565,0
10,1,1,0,0,569,0
11,1,1,0,0,571,0
12,1,1,0,0,573,0
13,1,1,0,0,575,0
14,1,1,0,0,576,0
15,1,1,0,0,576,0
0,1,1,0,0,575,0
1,1,1,0,0,573,0
2,1,1,0,0,570,0
3,1,1,0,0,568,0
4,1,1,0,0,566,0
5,1,1,0,0,565,0
6,1,1,0,0,563,0
7,1,1,0,0,562,0
8,1,1,0,0,562,0
9,1,1,0,0,563,0
10,1,1,0,0,566,0
11,1,1,0,0,569,0
12,1,1,0,0,573,0
13,1,1,0,0,576,0
14,1,1,0,0,579,0
15,1,1,0,0,580,0
0,1,1,0,0,582,0
1,1,1,0,0,583,0
2,1,1,0,0,584,0
3,1,1,0,0,583,0
4,1,1,0,0,582,0
5,1,1,0,0,581,0
6,1,1,0,0,578,0
7,1,1,0,0,574,0
8,1,1,0,0,572,0
9,1,1,0,0,571,0
10,1,1,0,0,570,0
11,1,1,0,0,567,0
12,1,1,0,0,565,0
13,1,1,0,0,566,0
14,1,1,0,0,568,0
15,1,1,0,0,571,0
0,1,1,0,0,574,0
1,1,1,0,0,576,0
2,1,1,0,0,578,0
3,1,1,0,0,579,0
4,1,1,0,0,579,0
5,1,1,0,0,580,0
6,1,1,0,0,580,0
7,1,1,0,0,579,0
8,1,1,0,0,577,0
9,1,1,0,0,575,0
10,1,1,0,0,572,0
11,1,1,0,0,569,0
12,1,1,0,0,566,0
13,1,1,0,0,565,0
14,1,1,0,0,563,0
15,1,1,0,0,561,0
0,1,1,0,0,559,0
1,1,1,0,0,560,0
2,1,1,0,0,562,0
3,1,1,0,0,564,0
4,1,1,0,0,567,0
5,1,1,0,0,569,0
6,1,1,0,0,570,0
7,1,1,0,0,571,0
8,1,1,0,0,571,0
9,1,1,0,0,571,0
10,1,1,0,0,572,0
11,1,1,0,0,572,0
12,1,1,0,0,569,0
13,1,1,0,0,567,0
14,1,1,0,0,563,0
15,1,1,0,0,559,0
0,1,1,0,0,555,0
1,1,1,0,0,553,0
2,1,1,0,0,552,0
3,1,1,0,0,551,0
4,1,1,0,0,551,0
5,1,1,0,0,551,0
6,1,1,0,0,551,0
7,1,1,0,0,553,0
8,1,1,0,0,556,0
9,1,1,0,0,557,0
10,1,1,0,0,559,0
11,1,1,0,0,560,0
12,1,1,0,0,559,0
13,1,1,0,0,560,0
14,1,1,0,0,560,0
15,1,1,0,0,559,0
0,1,1,0,0,557,0
1,1,1,0,0,554,0
2,1,1,0,0,551,0
3,1,1,0,0,549,0
4,1,1,0,0,547,0
5,1,1,0,0,543,0
6,1,1,0,0,541,0
7,1,1,0,0,540,0
8,1,1,0,0,539,0
9,1,1,0,0,539,0
10,1,1,0,0,540,0
11,1,1,0,0,542,0
12,1,1,0,0,545,0
13,1,1,0,0,548,0
14,1,1,0,0,550,0
15,1,1,0,0,551,0
0,1,1,0,0,551,0
1,1,1,0,0,549,0
2,1,1,0,0,549,0
3,1,1,0,0,547,0
4,1,1,0,0,545,0
5,1,1,0,0,543,0
6,1,1,0,0,539,0
7,1,1,0,0,535,0
8,1,1,0,0,531,0
9,1,1,0,0,528,0
10,1,1,0,0,526,0
11,1,1,0,0,525,0
12,1,1,0,0,524,0
13,1,1,0,0,525,0
14,1,1,0,0,526,0
15,1,1,0,0,527,0
0,1,1,0,0,530,0
1,1,1,0,0,532,0
2,1,1,0,0,534,0
3,1,1,0,0,535,0
4,1,1,0,0,535,0
5,1,1,0,0,535,0
6,1,1,0,0,535,0
7,1,1,0,0,533,0
8,1,1,0,0,530,0
9,1,1,0,0,527,0
10,1,1,0,0,523,0
11,1,1,0,0,519,0
12,1,1,0,0,515,0
13,1,1,0,0,513,0
14,1,1,0,0,509,0
15,1,1,0,0,506,0
0,1,1,0,0,505,0
1,1,1,0,0,505,0
2,1,1,0,0,506,0
3,1,1,0,0,508,0
4,1,1,0,0,510,0
5,1,1,0,0,512,0
6,1,1,0,0,513,0
7,1,1,0,0,512,0
8,1,1,0,0,512,0
9,1,1,0,0,511,0
10,1,1,0,0,510,0
11,1,1,0,0,509,0
12,1,1,0,0,506,0
13,1,1,0,0,502,0
14,1,1,0,0,499,0
15,1,1,0,0,496,0
0,1,1,0,0,494,0
1,1,1,0,0,494,0
2,1,1,0,0,492,0
3,1,1,0,0,491,0
4,1,1,0,0,491,0
5,1,1,0,0,492,0
6,1,1,0,0,494,0
7,1,1,0,0,496,0
8,1,1,0,0,498,0
9,1,1,0,0,501,0
10,1,1,0,0,503,0
11,1,1,0,0,504,0
12,1,1,0,0,505,0
13,1,1,0,0,507,0
14,1,1,0,0,508,0
15,1,1,0,0,507,0
0,1,1,0,0,505,0
1,1,1,0,0,504,0
2,1,1,0,0,501,0
3,1,1,0,0,498,0
4,1,1,0,0,496,0
5,1,1,0,0,495,0
6,1,1,0,0,493,0
7,1,1,0,0,491,0
8,1,1,0,0,491,0
9,1,1,0,0,492,0
10,1,1,0,0,495,0
11,1,1,0,0,499,0
12,1,1,0,0,504,0
13,1,1,0,0,508,0
14,1,1,0,0,511,0
15,1,1,0,0,513,0
0,1,1,0,0,515,0
1,1,1,0,0,516,0
2,1,1,0,0,517,0
3,1,1,0,0,516,0
4,1,1,0,0,515,0
5,1,1,0,0,513,0
6,1,1,0,0,511,0
7,1,1,0,0,507,0
8,1,1,0,0,504,0
9,1,1,0,0,503,0
10,1,1,0,0,503,0
11,1,1,0,0,502,0
12,1,1,0,0,502,0
13,1,1,0,0,503,0
14,1,1,0,0,504,0
15,1,1,0,0,508,0
0,1,1,0,0,511,0
1,1,1,0,0,514,0
2,1,1,0,0,516,0
3,1,1,0,0,517,0
4,1,1,0,0,519,0
5,1,1,0,0,519,0
6,1,1,0,0,519,0
7,1,1,0,0,519,0
8,1,1,0,0,517,0
9,1,1,0,0,515,0
10,1,1,0,0,512,0
11,1,1,0,0,509,0
12,1,1,0,0,505,0
13,1,1,0,0,501,0
14,1,1,0,0,499,0
15,1,1,0,0,498,0
0,1,1,0,0,497,0
1,1,1,0,0,498,0
2,1,1,0,0,499,0
3,1,1,0,0,502,0
4,1,1,0,0,505,0
5,1,1,0,0,508,0
6,1,1,0,0,511,0
7,1,1,0,0,512,0
8,1,1,0,0,513,0
9,1,1,0,0,514,0
10,1,1,0,0,515,0
11,1,1,0,0,513,0
12,1,1,0,0,512,0
13,1,1,0,0,510,0
14,1,1,0,0,507,0
15,1,1,0,0,503,0
0,1,1,0,0,500,0
1,1,1,0,0,497,0
2,1,1,0,0,495,0
3,1,1,0,0,492,0
4,1,1,0,0,491,0
5,1,1,0,0,492,0
6,1,1,0,0,493,0
7,1,1,0,0,496,0
8,1,1,0,0,499,0
9,1,1,0,0,502,0
10,1,1,0,0,505,0
11,1,1,0,0,507,0
12,1,1,0,0,508,0
13,1,1,0,0,510,0
14,1,1,0,0,511,0
15,1,1,0,0,509,0
0,1,1,0,0,507,0
1,1,1,0,0,504,0
2,1,1,0,0,502,0
3,1,1,0,0,497,0
4,1,1,0,0,495,0
5,1,1,0,0,493,0
6,1,1,0,0,491,0
7,1,1,0,0,489,0
8,1,1,0,0,488,0
9,1,1,0,0,487,0
10,1,1,0,0,488,0
11,1,1,0,0,491,0
12,1,1,0,0,494,0
13,1,1,0,0,498,0
14,1,1,0,0,500,0
15,1,1,0,0,501,0
0,1,1,0,0,502,0
1,1,1,0,0,503,0
2,1,1,0,0,504,0
3,1,1,0,0,504,0
4,1,1,0,0,502,0
5,1,1,0,0,499,0
6,1,1,0,0,496,0
7,1,1,0,0,493,0
8,1,1,0,0,490,0
9,1,1,0,0,488,0
10,1,1,0,0,487,0
11,1,1,0,0,485,0
12,1,1,0,0,484,0
13,1,1,0,0,485,0
14,1,1,0,0,487,0
15,1,1,0,0,490,0
0,1,1,0,0,494,0
1,1,1,0,0,498,0
2,1,1,0,0,503,0
3,1,1,0,0,505,0
4,1,1,0,0,507,0
5,1,1,0,0,508,0
6,1,1,0,0,510,0
7,1,1,0,0,511,0
8,1,1,0,0,510,0
9,1,1,0,0,508,0
10,1,1,0,0,505,0
11,1,1,0,0,503,0
12,1,1,0,0,501,0
13,1,1,0,0,500,0
14,1,1,0,0,498,0
15,1,1,0,0,497,0
0,1,1,0,0,497,0
1,1,1,0,0,497,0
2,1,1,0,0,498,0
3,1,1,0,0,501,0
4,1,1,0,0,503,0
5,1,1,0,0,507,0
6,1,1,0,0,508,0
7,1,1,0,0,509,0
8,1,1,0,0,510,0
9,1,1,0,0,509,0
10,1,1,0,0,510,0
11,1,1,0,0,511,0
12,1,1,0,0,510,0
13,1,1,0,0,509,0
14,1,1,0,0,508,0
15,1,1,0,0,505,0
0,1,1,0,0,503,0
1,1,1,0,0,502,0
2,1,1,0,0,502,0
3,1,1,0,0,502,0
4,1,1,0,0,502,0
5,1,1,0,0,502,0
6,1,1,0,0,504,0
7,1,1,0,0,507,0
8,1,1,0,0,510,0
9,1,1,0,0,513,0
10,1,1,0,0,516,0
11,1,1,0,0,517,0
12,1,1,0,0,518,0
13,1,1,0,0,518,0
14,1,1,0,0,518,0
15,1,1,0,0,516,0
0,1,1,0,0,513,0
1,1,1,0,0,511,0
2,1,1,0,0,507,0
3,1,1,0,0,503,0
4,1,1,0,0,499,0
5,1,1,0,0,496,0
6,1,1,0,0,494,0
7,1,1,0,0,492,0
8,1,1,0,0,490,0
9,1,1,0,0,490,0
10,1,1,0,0,492,0
11,1,1,0,0,494,0
12,1,1,0,0,498,0
13,1,1,0,0,502,0
14,1,1,0,0,504,0
15,1,1,0,0,507,0
0,1,1,0,0,508,0
1,1,1,0,0,509,0
2,1,1,0,0,510,0
3,1,1,0,0,510,0
4,1,1,0,0,509,0
5,1,1,0,0,508,0
6,1,1,0,0,504,0
7,1,1,0,0,502,0
8,1,1,0,0,499,0
9,1,1,0,0,496,0
10,1,1,0,0,494,0
11,1,1,0,0,493,0
12,1,1,0,0,492,0
13,1,1,0,0,492,0
14,1,1,0,0,494,0
15,1,1,0,0,496,0
0,1,1,0,0,499,0
1,1,1,0,0,502,0
2,1,1,0,0,505,0
3,1,1,0,0,507,0
4,1,1,0,0,508,0
5,1,1,0,0,509,0
6,1,1,0,0,510,0
7,1,1,0,0,510,0
8,1,1,0,0,508,0
9,1,1,0,0,505,0
10,1,1,0,0,503,0
11,1,1,0,0,500,0
12,1,1,0,0,498,0
13,1,1,0,0,499,0
14,1,1,0,0,499,0
15,1,1,0,0,498,0
0,1,1,0,0,499,0
1,1,1,0,0,501,0
2,1,1,0,0,504,0
3,1,1,0,0,509,0
4,1,1,0,0,512,0
5,1,1,0,0,517,0
6,1,1,0,0,519,0
7,1,1,0,0,523,0
8,1,1,0,0,524,0
9,1,1,0,0,525,0
10,1,1,0,0,526,0
11,1,1,0,0,526,0
12,1,1,0,0,525,0
13,1,1,0,0,523,0
14,1,1,0,0,520,0
15,1,1,0,0,516,0
0,1,1,0,0,514,0
1,1,1,0,0,513,0
2,1,1,0,0,512,0
3,1,1,0,0,509,0
4,1,1,0,0,508,0
5,1,1,0,0,508,0
6,1,1,0,0,511,0
7,1,1,0,0,514,0
8,1,1,0,0,517,0
9,1,1,0,0,521,0
10,1,1,0,0,523,0
11,1,1,0,0,525,0
12,1,1,0,0,526,0
13,1,1,0,0,526,0
14,1,1,0,0,527,0
15,1,1,0,0,525,0
0,1,1,0,0,524,0
1,1,1,0,0,521,0
2,1,1,0,0,518,0
3,1,1,0,0,515,0
4,1,1,0,0,512,0
5,1,1,0,0,511,0
6,1,1,0,0,510,0
7,1,1,0,0,508,0
8,1,1,0,0,506,0
9,1,1,0,0,506,0
10,1,1,0,0,508,0
11,1,1,0,0,510,0
12,1,1,0,0,513,0
13,1,1,0,0,518,0
14,1,1,0,0,520,0
15,1,1,0,0,522,0
0,1,1,0,0,524,0
1,1,1,0,0,524,0
2,1,1,0,0,524,0
3,1,1,0,0,525,0
4,1,1,0,0,523,0
5,1,1,0,0,521,0
6,1,1,0,0,518,0
7,1,1,0,0,513,0
8,1,1,0,0,510,0
9,1,1,0,0,508,0
10,1,1,0,0,508,0
11,1,1,0,0,507,0
12,1,1,0,0,507,0
13,1,1,0,0,507,0
14,1,1,0,0,509,0
15,1,1,0,0,511,0
0,1,1,0,0,514,0
1,1,1,0,0,516,0
2,1,1,0,0,519,0
3,1,1,0,0,520,0
4,1,1,0,0,522,0
5,1,1,0,0,523,0
6,1,1,0,0,523,0
7,1,1,0,0,522,0
8,1,1,0,0,519,0
9,1,1,0,0,516,0
10,1,1,0,0,513,0
11,1,1,0,0,510,0
12,1,1,0,0,506,0
13,1,1,0,0,503,0
14,1,1,0,0,502,0
15,1,1,0,0,503,0
0,1,1,0,0,502,0
1,1,1,0,0,502,0
2,1,1,0,0,505,0
3,1,1,0,0,508,0
4,1,1,0,0,512,0
5,1,1,0,0,516,0
6,1,1,0,0,519,0
7,1,1,0,0,520,0
8,1,1,0,0,521,0
9,1,1,0,0,520,0
10,1,1,0,0,520,0
11,1,1,0,0,516,0
12,1,1,0,0,510,0
13,1,1,0,0,501,0
14,1,1,0,0,489,0
15,1,1,0,0,477,0
0,1,1,0,0,466,0
1,1,1,0,0,456,0
2,1,1,0,0,446,0
3,1,1,0,0,437,0
4,1,1,0,0,429,0
5,1,1,0,0,423,0
6,1,1,0,0,421,0
7,1,1,0,0,420,0
8,1,1,0,0,422,0
9,1,1,0,0,422,0
10,1,1,0,0,419,0
11,1,1,0,0,416,0
12,1,1,0,0,414,0
13,1,1,0,0,413,0
14,1,1,0,0,413,0
15,1,1,0,0,411,0
0,1,1,0,0,412,0
1,1,1,0,0,417,0
2,1,1,0,0,426,0
3,1,1,0,0,438,0
4,1,1,0,0,451,0
5,1,1,0,0,466,0
6,1,1,0,0,481,0
7,1,1,0,0,495,0
8,1,1,0,0,511,0
9,1,1,0,0,529,0
10,1,1,0,0,550,0
11,1,1,0,0,575,0
12,1,1,0,0,604,0
13,1,1,0,0,636,0
14,1,1,0,0,668,0
15,1,1,0,0,701,0
0,1,1,0,0,736,0
1,1,1,0,0,769,0
2,1,1,0,0,796,0
3,1,1,0,0,816,0
4,1,1,0,0,827,0
5,1,1,0,0,832,0
6,1,1,0,0,830,0
7,1,1,0,0,825,0
8,1,1,0,0,822,0
9,1,1,0,0,823,0
10,1,1,0,0,823,0
11,1,1,0,0,818,0
12,1,1,0,0,810,0
13,1,1,0,0,800,0
14,1,1,0,0,790,0
15,1,1,0,0,779,0
0,1,1,0,0,767,0
1,1,1,0,0,754,0
2,1,1,0,0,740,0
3,1,1,0,0,722,0
4,1,1,0,0,703,0
5,1,1,0,0,683,0
6,1,1,0,0,662,0
7,1,1,0,0,639,0
8,1,1,0,0,615,0
9,1,1,0,0,595,0
10,1,1,0,0,576,0
11,1,1,0,0,558,0
12,1,1,0,0,543,0
13,1,1,0,0,529,0
14,1,1,0,0,516,0
15,1,1,0,0,503,0
0,1,1,0,0,492,0
1,1,1,0,0,483,0
2,1,1,0,0,478,0
3,1,1,0,0,473,0
4,1,1,0,0,472,0
5,1,1,0,0,472,0
6,1,1,0,0,472,0
7,1,1,0,0,471,0
8,1,1,0,0,470,0
9,1,1,0,0,468,0
10,1,1,0,0,467,0
11,1,1,0,0,465,0
12,1,1,0,0,462,0
13,1,1,0,0,459,0
14,1,1,0,0,455,0
15,1,1,0,0,451,0
0,1,1,0,0,448,0
1,1,1,0,0,445,0
2,1,1,0,0,443,0
3,1,1,0,0,443,0
4,1,1,0,0,442,0
5,1,1,0,0,443,0
6,1,1,0,0,444,0
7,1,1,0,0,448,0
8,1,1,0,0,451,0
9,1,1,0,0,454,0
10,1,1,0,0,456,0
11,1,1,0,0,458,0
12,1,1,0,0,459,0
13,1,1,0,0,460,0
14,1,1,0,0,461,0
15,1,1,0,0,460,0
0,1,1,0,0,457,0
1,1,1,0,0,455,0
2,1,1,0,0,454,0
3,1,1,0,0,450,0
4,1,1,0,0,447,0
5,1,1,0,0,444,0
6,1,1,0,0,443,0
7,1,1,0,0,442,0
8,1,1,0,0,442,0
9,1,1,0,0,443,0
10,1,1,0,0,445,0
11,1,1,0,0,448,0
12,1,1,0,0,451,0
13,1,1,0,0,455,0
14,1,1,0,0,459,0
15,1,1,0,0,461,0
0,1,1,0,0,463,0
1,1,1,0,0,465,0
2,1,1,0,0,466,0
3,1,1,0,0,465,0
4,1,1,0,0,463,0
5,1,1,0,0,463,0
6,1,1,0,0,461,0
7,1,1,0,0,458,0
8,1,1,0,0,455,0
9,1,1,0,0,454,0
10,1,1,0,0,454,0
11,1,1,0,0,453,0
12,1,1,0,0,453,0
13,1,1,0,0,455,0
14,1,1,0,0,458,0
15,1,1,0,0,460,0
0,1,1,0,0,464,0
1,1,1,0,0,468,0
2,1,1,0,0,472,0
3,1,1,0,0,474,0
4,1,1,0,0,476,0
5,1,1,0,0,477,0
6,1,1,0,0,478,0
7,1,1,0,0,479,0
8,1,1,0,0,478,0
9,1,1,0,0,476,0
10,1,1,0,0,473,0
11,1,1,0,0,471,0
12,1,1,0,0,468,0
13,1,1,0,0,467,0
14,1,1,0,0,466,0
15,1,1,0,0,464,0
0,1,1,0,0,464,0
1,1,1,0,0,465,0
2,1,1,0,0,467,0
3,1,1,0,0,470,0
4,1,1,0,0,473,0
5,1,1,0,0,477,0
6,1,1,0,0,479,0
7,1,1,0,0,482,0
8,1,1,0,0,484,0
9,1,1,0,0,484,0
10,1,1,0,0,484,0
11,1,1,0,0,485,0
12,1,1,0,0,484,0
13,1,1,0,0,480,0
14,1,1,0,0,479,0
15,1,1,0,0,476,0
0,1,1,0,0,472,0
1,1,1,0,0,470,0
2,1,1,0,0,470,0
3,1,1,0,0,467,0
4,1,1,0,0,466,0
5,1,1,0,0,468,0
6,1,1,0,0,471,0
7,1,1,0,0,474,0
8,1,1,0,0,478,0
9,1,1,0,0,482,0
10,1,1,0,0,484,0
11,1,1,0,0,487,0
12,1,1,0,0,489,0
13,1,1,0,0,489,0
14,1,1,0,0,490,0
15,1,1,0,0,491,0
0,1,1,0,0,489,0
1,1,1,0,0,486,0
2,1,1,0,0,483,0
3,1,1,0,0,479,0
4,1,1,0,0,477,0
5,1,1,0,0,476,0
6,1,1,0,0,475,0
7,1,1,0,0,473,0
8,1,1,0,0,472,0
9,1,1,0,0,472,0
10,1,1,0,0,473,0
11,1,1,0,0,475,0
12,1,1,0,0,478,0
13,1,1,0,0,480,0
14,1,1,0,0,483,0
15,1,1,0,0,485,0
0,1,1,0,0,487,0
1,1,1,0,0,487,0
2,1,1,0,0,487,0
3,1,1,0,0,487,0
4,1,1,0,0,485,0
5,1,1,0,0,483,0
6,1,1,0,0,481,0
7,1,1,0,0,477,0
8,1,1,0,0,473,0
9,1,1,0,0,472,0
10,1,1,0,0,471,0
11,1,1,0,0,470,0
12,1,1,0,0,469,0
13,1,1,0,0,470,0
14,1,1,0,0,472,0
15,1,1,0,0,473,0
0,1,1,0,0,477,0
1,1,1,0,0,481,0
2,1,1,0,0,483,0
3,1,1,0,0,484,0
4,1,1,0,0,485,0
5,1,1,0,0,485,0
6,1,1,0,0,486,0
7,1,1,0,0,485,0
8,1,1,0,0,483,0
9,1,1,0,0,480,0
10,1,1,0,0,477,0
11,1,1,0,0,475,0
12,1,1,0,0,470,0
13,1,1,0,0,467,0
14,1,1,0,0,465,0
15,1,1,0,0,463,0
0,1,1,0,0,462,0
1,1,1,0,0,461,0
2,1,1,0,0,462,0
3,1,1,0,0,465,0
4,1,1,0,0,468,0
5,1,1,0,0,470,0
6,1,1,0,0,472,0
7,1,1,0,0,473,0
8,1,1,0,0,474,0
9,1,1,0,0,474,0
10,1,1,0,0,475,0
11,1,1,0,0,475,0
12,1,1,0,0,474,0
13,1,1,0,0,472,0
14,1,1,0,0,469,0
15,1,1,0,0,467,0
0,1,1,0,0,464,0
1,1,1,0,0,462,0
2,1,1,0,0,459,0
3,1,1,0,0,457,0
4,1,1,0,0,457,0
5,1,1,0,0,457,0
6,1,1,0,0,457,0
7,1,1,0,0,460,0
8,1,1,0,0,462,0
9,1,1,0,0,464,0
10,1,1,0,0,466,0
11,1,1,0,0,469,0
12,1,1,0,0,468,0
13,1,1,0,0,467,0
14,1,1,0,0,467,0
15,1,1,0,0,467,0
0,1,1,0,0,463,0
1,1,1,0,0,461,0
2,1,1,0,0,458,0
3,1,1,0,0,454,0
4,1,1,0,0,452,0
5,1,1,0,0,451,0
6,1,1,0,0,449,0
7,1,1,0,0,446,0
8,1,1,0,0,446,0
9,1,1,0,0,446,0
10,1,1,0,0,447,0
11,1,1,0,0,450,0
12,1,1,0,0,455,0
13,1,1,0,0,460,0
14,1,1,0,0,464,0
15,1,1,0,0,467,0
0,1,1,0,0,469,0
1,1,1,0,0,471,0
2,1,1,0,0,473,0
3,1,1,0,0,475,0
4,1,1,0,0,474,0
5,1,1,0,0,473,0
6,1,1,0,0,472,0
7,1,1,0,0,471,0
8,1,1,0,0,470,0
9,1,1,0,0,470,0
10,1,1,0,0,470,0
11,1,1,0,0,471,0
12,1,1,0,0,471,0
13,1,1,0,0,472,0
14,1,1,0,0,475,0
15,1,1,0,0,480,0
0,1,1,0,0,485,0
1,1,1,0,0,491,0
2,1,1,0,0,496,0
3,1,1,0,0,501,0
4,1,1,0,0,504,0
5,1,1,0,0,508,0
6,1,1,0,0,512,0
7,1,1,0,0,514,0
8,1,1,0,0,516,0
9,1,1,0,0,516,0
10,1,1,0,0,516,0
11,1,1,0,0,516,0
12,1,1,0,0,516,0
13,1,1,0,0,518,0
14,1,1,0,0,520,0
15,1,1,0,0,522,0
0,1,1,0,0,524,0
1,1,1,0,0,527,0
2,1,1,0,0,531,0
3,1,1,0,0,536,0
4,1,1,0,0,541,0
5,1,1,0,0,547,0
6,1,1,0,0,552,0
7,1,1,0,0,556,0
8,1,1,0,0,560,0
9,1,1,0,0,563,0
10,1,1,0,0,567,0
11,1,1,0,0,568,0
12,1,1,0,0,568,0
13,1,1,0,0,566,0
14,1,1,0,0,564,0
15,1,1,0,0,563,0
0,1,1,0,0,561,0
1,1,1,0,0,560,0
2,1,1,0,0,562,0
3,1,1,0,0,562,0
4,1,1,0,0,561,0
5,1,1,0,0,564,0
6,1,1,0,0,567,0
7,1,1,0,0,571,0
8,1,1,0,0,575,0
9,1,1,0,0,579,0
10,1,1,0,0,584,0
11,1,1,0,0,588,0
12,1,1,0,0,590,0
13,1,1,0,0,591,0
14,1,1,0,0,592,0
15,1,1,0,0,592,0
0,1,1,0,0,591,0
1,1,1,0,0,589,0
2,1,1,0,0,587,0
3,1,1,0,0,584,0
4,1,1,0,0,580,0
5,1,1,0,0,577,0
6,1,1,0,0,575,0
7,1,1,0,0,573,0
8,1,1,0,0,573,0
9,1,1,0,0,573,0
10,1,1,0,0,574,0
11,1,1,0,0,576,0
12,1,1,0,0,579,0
13,1,1,0,0,583,0
14,1,1,0,0,585,0
15,1,1,0,0,587,0
0,1,1,0,0,588,0
1,1,1,0,0,588,0
2,1,1,0,0,589,0
3,1,1,0,0,588,0
4,1,1,0,0,587,0
5,1,1,0,0,585,0
6,1,1,0,0,582,0
7,1,1,0,0,578,0
8,1,1,0,0,574,0
9,1,1,0,0,572,0
10,1,1,0,0,570,0
11,1,1,0,0,568,0
12,1,1,0,0,568,0
13,1,1,0,0,568,0
14,1,1,0,0,568,0
15,1,1,0,0,571,0
0,1,1,0,0,575,0
1,1,1,0,0,578,0
2,1,1,0,0,581,0
3,1,1,0,0,582,0
4,1,1,0,0,582,0
5,1,1,0,0,582,0
6,1,1,0,0,580,0
7,1,1,0,0,579,0
8,1,1,0,0,576,0
9,1,1,0,0,574,0
10,1,1,0,0,571,0
11,1,1,0,0,568,0
12,1,1,0,0,563,0
13,1,1,0,0,560,0
14,1,1,0,0,558,0
15,1,1,0,0,556,0
0,1,1,0,0,555,0
1,1,1,0,0,555,0
2,1,1,0,0,556,0
3,1,1,0,0,558,0
4,1,1,0,0,561,0
5,1,1,0,0,564,0
6,1,1,0,0,567,0
7,1,1,0,0,569,0
8,1,1,0,0,571,0
9,1,1,0,0,571,0
10,1,1,0,0,569,0
11,1,1,0,0,568,0
12,1,1,0,0,566,0
13,1,1,0,0,562,0
14,1,1,0,0,559,0
15,1,1,0,0,555,0
0,1,1,0,0,551,0
1,1,1,0,0,548,0
2,1,1,0,0,547,0
3,1,1,0,0,543,0
4,1,1,0,0,542,0
5,1,1,0,0,542,0
6,1,1,0,0,543,0
7,1,1,0,0,545,0
8,1,1,0,0,548,0
9,1,1,0,0,551,0
10,1,1,0,0,555,0
11,1,1,0,0,556,0
12,1,1,0,0,555,0
13,1,1,0,0,556,0
14,1,1,0,0,557,0
15,1,1,0,0,556,0
0,1,1,0,0,555,0
1,1,1,0,0,552,0
2,1,1,0,0,549,0
3,1,1,0,0,545,0
4,1,1,0,0,541,0
5,1,1,0,0,538,0
6,1,1,0,0,536,0
7,1,1,0,0,534,0
8,1,1,0,0,532,0
9,1,1,0,0,532,0
10,1,1,0,0,532,0
11,1,1,0,0,535,0
12,1,1,0,0,538,0
13,1,1,0,0,541,0
14,1,1,0,0,543,0
15,1,1,0,0,543,0
0,1,1,0,0,545,0
1,1,1,0,0,545,0
2,1,1,0,0,546,0
3,1,1,0,0,547,0
4,1,1,0,0,545,0
5,1,1,0,0,543,0
6,1,1,0,0,540,0
7,1,1,0,0,536,0
8,1,1,0,0,531,0
9,1,1,0,0,528,0
10,1,1,0,0,527,0
11,1,1,0,0,526,0
12,1,1,0,0,525,0
13,1,1,0,0,527,0
14,1,1,0,0,526,0
15,1,1,0,0,527,0
0,1,1,0,0,529,0
1,1,1,0,0,531,0
2,1,1,0,0,532,0
3,1,1,0,0,535,0
4,1,1,0,0,536,0
5,1,1,0,0,537,0
6,1,1,0,0,537,0
7,1,1,0,0,537,0
8,1,1,0,0,535,0
9,1,1,0,0,532,0
10,1,1,0,0,530,0
11,1,1,0,0,528,0
12,1,1,0,0,525,0
13,1,1,0,0,522,0
14,1,1,0,0,520,0
15,1,1,0,0,519,0
0,1,1,0,0,519,0
1,1,1,0,0,520,0
2,1,1,0,0,520,0
3,1,1,0,0,523,0
4,1,1,0,0,526,0
5,1,1,0,0,529,0
6,1,1,0,0,531,0
7,1,1,0,0,532,0
8,1,1,0,0,533,0
9,1,1,0,0,533,0
10,1,1,0,0,533,0
11,1,1,0,0,533,0
12,1,1,0,0,532,0
13,1,1,0,0,528,0
14,1,1,0,0,526,0
15,1,1,0,0,522,0
0,1,1,0,0,519,0
1,1,1,0,0,516,0
2,1,1,0,0,513,0
3,1,1,0,0,511,0
4,1,1,0,0,511,0
5,1,1,0,0,512,0
6,1,1,0,0,513,0
7,1,1,0,0,515,0
8,1,1,0,0,518,0
9,1,1,0,0,522,0
10,1,1,0,0,524,0
11,1,1,0,0,525,0
12,1,1,0,0,527,0
13,1,1,0,0,528,0
14,1,1,0,0,528,0
15,1,1,0,0,527,0
0,1,1,0,0,525,0
1,1,1,0,0,523,0
2,1,1,0,0,521,0
3,1,1,0,0,518,0
4,1,1,0,0,515,0
5,1,1,0,0,515,0
6,1,1,0,0,515,0
7,1,1,0,0,513,0
8,1,1,0,0,512,0
9,1,1,0,0,512,0
10,1,1,0,0,513,0
11,1,1,0,0,515,0
12,1,1,0,0,519,0
13,1,1,0,0,523,0
14,1,1,0,0,525,0
15,1,1,0,0,527,0
0,1,1,0,0,528,0
1,1,1,0,0,529,0
2,1,1,0,0,529,0
3,1,1,0,0,529,0
4,1,1,0,0,528,0
5,1,1,0,0,526,0
6,1,1,0,0,522,0
7,1,1,0,0,519,0
8,1,1,0,0,516,0
9,1,1,0,0,513,0
10,1,1,0,0,512,0
11,1,1,0,0,511,0
12,1,1,0,0,510,0
13,1,1,0,0,511,0
14,1,1,0,0,513,0
15,1,1,0,0,515,0
0,1,1,0,0,520,0
1,1,1,0,0,524,0
2,1,1,0,0,527,0
3,1,1,0,0,529,0
4,1,1,0,0,529,0
5,1,1,0,0,531,0
6,1,1,0,0,532,0
7,1,1,0,0,532,0
8,1,1,0,0,530,0
9,1,1,0,0,527,0
10,1,1,0,0,525,0
11,1,1,0,0,521,0
12,1,1,0,0,517,0
13,1,1,0,0,515,0
14,1,1,0,0,513,0
15,1,1,0,0,512,0
0,1,1,0,0,511,0
1,1,1,0,0,511,0
2,1,1,0,0,511,0
3,1,1,0,0,512,0
4,1,1,0,0,515,0
5,1,1,0,0,518,0
6,1,1,0,0,521,0
7,1,1,0,0,524,0
8,1,1,0,0,524,0
9,1,1,0,0,524,0
10,1,1,0,0,524,0
11,1,1,0,0,524,0
12,1,1,0,0,522,0
13,1,1,0,0,520,0
14,1,1,0,0,518,0
15,1,1,0,0,515,0
0,1,1,0,0,512,0
1,1,1,0,0,511,0
2,1,1,0,0,511,0
3,1,1,0,0,510,0
4,1,1,0,0,508,0
5,1,1,0,0,508,0
6,1,1,0,0,509,0
7,1,1,0,0,512,0
8,1,1,0,0,515,0
9,1,1,0,0,519,0
10,1,1,0,0,521,0
11,1,1,0,0,524,0
12,1,1,0,0,525,0
13,1,1,0,0,526,0
14,1,1,0,0,527,0
15,1,1,0,0,527,0
0,1,1,0,0,526,0
1,1,1,0,0,525,0
2,1,1,0,0,521,0
3,1,1,0,0,519,0
4,1,1,0,0,515,0
5,1,1,0,0,511,0
6,1,1,0,0,509,0
7,1,1,0,0,509,0
8,1,1,0,0,509,0
9,1,1,0,0,509,0
10,1,1,0,0,510,0
11,1,1,0,0,512,0
12,1,1,0,0,515,0
13,1,1,0,0,518,0
14,1,1,0,0,521,0
15,1,1,0,0,523,0
0,1,1,0,0,524,0
1,1,1,0,0,525,0
2,1,1,0,0,526,0
3,1,1,0,0,525,0
4,1,1,0,0,523,0
5,1,1,0,0,520,0
6,1,1,0,0,518,0
7,1,1,0,0,515,0
8,1,1,0,0,513,0
9,1,1,0,0,510,0
10,1,1,0,0,508,0
11,1,1,0,0,507,0
12,1,1,0,0,508,0
13,1,1,0,0,507,0
14,1,1,0,0,509,0
15,1,1,0,0,512,0
0,1,1,0,0,514,0
1,1,1,0,0,517,0
2,1,1,0,0,519,0
3,1,1,0,0,521,0
4,1,1,0,0,521,0
5,1,1,0,0,521,0
6,1,1,0,0,521,0
7,1,1,0,0,521,0
8,1,1,0,0,519,0
9,1,1,0,0,517,0
10,1,1,0,0,513,0
11,1,1,0,0,510,0
12,1,1,0,0,508,0
13,1,1,0,0,505,0
14,1,1,0,0,502,0
15,1,1,0,0,499,0
0,1,1,0,0,499,0
1,1,1,0,0,499,0
2,1,1,0,0,499,0
3,1,1,0,0,500,0
4,1,1,0,0,503,0
5,1,1,0,0,506,0
6,1,1,0,0,508,0
7,1,1,0,0,512,0
8,1,1,0,0,512,0
9,1,1,0,0,514,0
10,1,1,0,0,515,0
11,1,1,0,0,514,0
12,1,1,0,0,514,0
13,1,1,0,0,512,0
14,1,1,0,0,509,0
15,1,1,0,0,507,0
0,1,1,0,0,505,0
1,1,1,0,0,504,0
2,1,1,0,0,503,0
3,1,1,0,0,502,0
4,1,1,0,0,499,0
5,1,1,0,0,499,0
6,1,1,0,0,499,0
7,1,1,0,0,500,0
8,1,1,0,0,504,0
9,1,1,0,0,507,0
10,1,1,0,0,509,0
11,1,1,0,0,511,0
12,1,1,0,0,512,0
13,1,1,0,0,512,0
14,1,1,0,0,513,0
15,1,1,0,0,513,0
0,1,1,0,0,513,0
1,1,1,0,0,513,0
2,1,1,0,0,511,0
3,1,1,0,0,509,0
4,1,1,0,0,506,0
5,1,1,0,0,504,0
6,1,1,0,0,505,0
7,1,1,0,0,506,0
8,1,1,0,0,505,0
9,1,1,0,0,506,0
10,1,1,0,0,508,0
11,1,1,0,0,512,0
12,1,1,0,0,516,0
13,1,1,0,0,520,0
14,1,1,0,0,524,0
15,1,1,0,0,527,0
0,1,1,0,0,528,0
1,1,1,0,0,528,0
2,1,1,0,0,530,0
3,1,1,0,0,530,0
4,1,1,0,0,529,0
5,1,1,0,0,527,0
6,1,1,0,0,524,0
7,1,1,0,0,521,0
8,1,1,0,0,518,0
9,1,1,0,0,515,0
10,1,1,0,0,515,0
11,1,1,0,0,515,0
12,1,1,0,0,515,0
13,1,1,0,0,516,0
14,1,1,0,0,519,0
15,1,1,0,0,521,0
0,1,1,0,0,526,0
1,1,1,0,0,530,0
2,1,1,0,0,534,0
3,1,1,0,0,536,0
4,1,1,0,0,537,0
5,1,1,0,0,538,0
6,1,1,0,0,540,0
7,1,1,0,0,540,0
8,1,1,0,0,539,0
9,1,1,0,0,536,0
10,1,1,0,0,532,0
11,1,1,0,0,529,0
12,1,1,0,0,526,0
13,1,1,0,0,523,0
14,1,1,0,0,520,0
15,1,1,0,0,518,0
0,1,1,0,0,517,0
1,1,1,0,0,517,0
2,1,1,0,0,518,0
3,1,1,0,0,519,0
4,1,1,0,0,523,0
5,1,1,0,0,525,0
6,1,1,0,0,528,0
7,1,1,0,0,530,0
8,1,1,0,0,531,0
9,1,1,0,0,532,0
10,1,1,0,0,533,0
11,1,1,0,0,533,0
12,1,1,0,0,531,0
13,1,1,0,0,529,0
14,1,1,0,0,527,0
15,1,1,0,0,524,0
0,1,1,0,0,521,0
1,1,1,0,0,518,0
2,1,1,0,0,516,0
3,1,1,0,0,514,0
4,1,1,0,0,515,0
5,1,1,0,0,515,0
6,1,1,0,0,515,0
7,1,1,0,0,517,0
8,1,1,0,0,521,0
9,1,1,0,0,524,0
10,1,1,0,0,527,0
11,1,1,0,0,528,0
12,1,1,0,0,531,0
13,1,1,0,0,531,0
14,1,1,0,0,531,0
15,1,1,0,0,531,0
0,1,1,0,0,531,0
1,1,1,0,0,529,0
2,1,1,0,0,526,0
3,1,1,0,0,523,0
4,1,1,0,0,520,0
5,1,1,0,0,518,0
6,1,1,0,0,517,0
7,1,1,0,0,516,0
8,1,1,0,0,515,0
9,1,1,0,0,515,0
10,1,1,0,0,517,0
11,1,1,0,0,520,0
12,1,1,0,0,523,0
13,1,1,0,0,527,0
14,1,1,0,0,529,0
15,1,1,0,0,531,0
0,1,1,0,0,533,0
1,1,1,0,0,534,0
2,1,1,0,0,535,0
3,1,1,0,0,534,0
4,1,1,0,0,531,0
5,1,1,0,0,528,0
6,1,1,0,0,524,0
7,1,1,0,0,517,0
8,1,1,0,0,510,0
9,1,1,0,0,501,0
10,1,1,0,0,492,0
11,1,1,0,0,483,0
12,1,1,0,0,474,0
13,1,1,0,0,466,0
14,1,1,0,0,460,0
15,1,1,0,0,456,0
0,1,1,0,0,453,0
1,1,1,0,0,451,0
2,1,1,0,0,449,0
3,1,1,0,0,447,0
4,1,1,0,0,447,0
5,1,1,0,0,445,0
6,1,1,0,0,443,0
7,1,1,0,0,439,0
8,1,1,0,0,436,0
9,1,1,0,0,432,0
10,1,1,0,0,430,0
11,1,1,0,0,428,0
12,1,1,0,0,430,0
13,1,1,0,0,433,0
14,1,1,0,0,442,0
15,1,1,0,0,455,0
0,1,1,0,0,468,0
1,1,1,0,0,483,0
2,1,1,0,0,500,0
3,1,1,0,0,518,0
4,1,1,0,0,539,0
5,1,1,0,0,559,0
6,1,1,0,0,579,0
7,1,1,0,0,604,0
8,1,1,0,0,632,0
9,1,1,0,0,660,0
10,1,1,0,0,691,0
11,1,1,0,0,721,0
12,1,1,0,0,751,0
13,1,1,0,0,777,0
14,1,1,0,0,797,0
15,1,1,0,0,810,0
0,1,1,0,0,819,0
1,1,1,0,0,825,0
2,1,1,0,0,827,0
3,1,1,0,0,827,0
4,1,1,0,0,827,0
5,1,1,0,0,830,0
6,1,1,0,0,832,0
7,1,1,0,0,831,0
8,1,1,0,0,825,0
9,1,1,0,0,817,0
10,1,1,0,0,807,0
11,1,1,0,0,797,0
12,1,1,0,0,783,0
13,1,1,0,0,765,0
14,1,1,0,0,747,0
15,1,1,0,0,728,0
0,1,1,0,0,708,0
1,1,1,0,0,685,0
2,1,1,0,0,661,0
3,1,1,0,0,636,0
4,1,1,0,0,610,0
5,1,1,0,0,585,0
6,1,1,0,0,563,0
7,1,1,0,0,544,0
8,1,1,0,0,531,0
9,1,1,0,0,519,0
10,1,1,0,0,508,0
11,1,1,0,0,498,0
12,1,1,0,0,491,0
13,1,1,0,0,486,0
14,1,1,0,0,482,0
15,1,1,0,0,478,0
0,1,1,0,0,473,0
1,1,1,0,0,468,0
2,1,1,0,0,465,0
3,1,1,0,0,463,0
4,1,1,0,0,460,0
5,1,1,0,0,457,0
6,1,1,0,0,454,0
7,1,1,0,0,451,0
8,1,1,0,0,447,0
9,1,1,0,0,443,0
10,1,1,0,0,440,0
11,1,1,0,0,437,0
12,1,1,0,0,436,0
13,1,1,0,0,435,0
14,1,1,0,0,438,0
15,1,1,0,0,440,0
0,1,1,0,0,443,0
1,1,1,0,0,447,0
2,1,1,0,0,450,0
3,1,1,0,0,453,0
4,1,1,0,0,454,0
5,1,1,0,0,455,0
6,1,1,0,0,455,0
7,1,1,0,0,455,0
8,1,1,0,0,454,0
9,1,1,0,0,452,0
10,1,1,0,0,449,0
11,1,1,0,0,446,0
12,1,1,0,0,444,0
13,1,1,0,0,441,0
14,1,1,0,0,438,0
15,1,1,0,0,435,0
0,1,1,0,0,435,0
1,1,1,0,0,434,0
2,1,1,0,0,434,0
3,1,1,0,0,436,0
4,1,1,0,0,440,0
5,1,1,0,0,444,0
6,1,1,0,0,448,0
7,1,1,0,0,449,0
8,1,1,0,0,451,0
9,1,1,0,0,452,0
10,1,1,0,0,453,0
11,1,1,0,0,455,0
12,1,1,0,0,454,0
13,1,1,0,0,451,0
14,1,1,0,0,449,0
15,1,1,0,0,447,0
0,1,1,0,0,444,0
1,1,1,0,0,442,0
2,1,1,0,0,442,0
3,1,1,0,0,441,0
4,1,1,0,0,440,0
5,1,1,0,0,439,0
6,1,1,0,0,440,0
7,1,1,0,0,441,0
8,1,1,0,0,445,0
9,1,1,0,0,450,0
10,1,1,0,0,454,0
11,1,1,0,0,457,0
12,1,1,0,0,459,0
13,1,1,0,0,460,0
14,1,1,0,0,462,0
15,1,1,0,0,462,0
0,1,1,0,0,462,0
1,1,1,0,0,460,0
2,1,1,0,0,458,0
3,1,1,0,0,455,0
4,1,1,0,0,453,0
5,1,1,0,0,451,0
6,1,1,0,0,451,0
7,1,1,0,0,450,0
8,1,1,0,0,448,0
9,1,1,0,0,447,0
10,1,1,0,0,447,0
11,1,1,0,0,450,0
12,1,1,0,0,452,0
13,1,1,0,0,456,0
14,1,1,0,0,459,0
15,1,1,0,0,461,0
0,1,1,0,0,463,0
1,1,1,0,0,464,0
2,1,1,0,0,465,0
3,1,1,0,0,467,0
4,1,1,0,0,466,0
5,1,1,0,0,465,0
6,1,1,0,0,463,0
7,1,1,0,0,460,0
8,1,1,0,0,458,0
9,1,1,0,0,456,0
10,1,1,0,0,455,0
11,1,1,0,0,454,0
12,1,1,0,0,454,0
13,1,1,0,0,455,0
14,1,1,0,0,457,0
15,1,1,0,0,459,0
0,1,1,0,0,462,0
1,1,1,0,0,464,0
2,1,1,0,0,467,0
3,1,1,0,0,470,0
4,1,1,0,0,472,0
5,1,1,0,0,472,0
6,1,1,0,0,472,0
7,1,1,0,0,472,0
8,1,1,0,0,472,0
9,1,1,0,0,470,0
10,1,1,0,0,467,0
11,1,1,0,0,464,0
12,1,1,0,0,460,0
13,1,1,0,0,457,0
14,1,1,0,0,455,0
15,1,1,0,0,454,0
0,1,1,0,0,453,0
1,1,1,0,0,453,0
2,1,1,0,0,455,0
3,1,1,0,0,457,0
4,1,1,0,0,461,0
5,1,1,0,0,465,0
6,1,1,0,0,469,0
7,1,1,0,0,472,0
8,1,1,0,0,473,0
9,1,1,0,0,474,0
10,1,1,0,0,475,0
11,1,1,0,0,475,0
12,1,1,0,0,475,0
13,1,1,0,0,473,0
14,1,1,0,0,471,0
15,1,1,0,0,468,0
0,1,1,0,0,465,0
1,1,1,0,0,462,0
2,1,1,0,0,460,0
3,1,1,0,0,457,0
4,1,1,0,0,457,0
5,1,1,0,0,456,0
6,1,1,0,0,457,0
7,1,1,0,0,459,0
8,1,1,0,0,463,0
9,1,1,0,0,467,0
10,1,1,0,0,471,0
11,1,1,0,0,473,0
12,1,1,0,0,474,0
13,1,1,0,0,474,0
14,1,1,0,0,474,0
15,1,1,0,0,473,0
0,1,1,0,0,472,0
1,1,1,0,0,469,0
2,1,1,0,0,465,0
3,1,1,0,0,462,0
4,1,1,0,0,459,0
5,1,1,0,0,456,0
6,1,1,0,0,455,0
7,1,1,0,0,452,0
8,1,1,0,0,451,0
9,1,1,0,0,450,0
10,1,1,0,0,450,0
11,1,1,0,0,452,0
12,1,1,0,0,455,0
13,1,1,0,0,459,0
14,1,1,0,0,462,0
15,1,1,0,0,464,0
0,1,1,0,0,465,0
1,1,1,0,0,465,0
2,1,1,0,0,465,0
3,1,1,0,0,465,0
4,1,1,0,0,464,0
5,1,1,0,0,461,0
6,1,1,0,0,457,0
7,1,1,0,0,454,0
8,1,1,0,0,451,0
9,1,1,0,0,450,0
10,1,1,0,0,448,0
11,1,1,0,0,446,0
12,1,1,0,0,444,0
13,1,1,0,0,443,0
14,1,1,0,0,445,0
15,1,1,0,0,446,0
0,1,1,0,0,449,0
1,1,1,0,0,452,0
2,1,1,0,0,455,0
3,1,1,0,0,457,0
4,1,1,0,0,458,0
5,1,1,0,0,459,0
6,1,1,0,0,460,0
7,1,1,0,0,461,0
8,1,1,0,0,461,0
9,1,1,0,0,460,0
10,1,1,0,0,457,0
11,1,1,0,0,455,0
12,1,1,0,0,452,0
13,1,1,0,0,450,0
14,1,1,0,0,449,0
15,1,1,0,0,448,0
0,1,1,0,0,446,0
1,1,1,0,0,444,0
2,1,1,0,0,446,0
3,1,1,0,0,447,0
4,1,1,0,0,450,0
5,1,1,0,0,454,0
6,1,1,0,0,457,0
7,1,1,0,0,459,0
8,1,1,0,0,460,0
9,1,1,0,0,461,0
10,1,1,0,0,462,0
11,1,1,0,0,462,0
12,1,1,0,0,460,0
13,1,1,0,0,458,0
14,1,1,0,0,456,0
15,1,1,0,0,455,0
0,1,1,0,0,452,0
1,1,1,0,0,451,0
2,1,1,0,0,452,0
3,1,1,0,0,454,0
4,1,1,0,0,455,0
5,1,1,0,0,458,0
6,1,1,0,0,461,0
7,1,1,0,0,465,0
8,1,1,0,0,470,0
9,1,1,0,0,475,0
10,1,1,0,0,480,0
11,1,1,0,0,485,0
12,1,1,0,0,489,0
13,1,1,0,0,492,0
14,1,1,0,0,495,0
15,1,1,0,0,497,0
0,1,1,0,0,499,0
1,1,1,0,0,499,0
2,1,1,0,0,498,0
3,1,1,0,0,498,0
4,1,1,0,0,496,0
5,1,1,0,0,494,0
6,1,1,0,0,494,0
7,1,1,0,0,496,0
8,1,1,0,0,498,0
9,1,1,0,0,501,0
10,1,1,0,0,505,0
11,1,1,0,0,509,0
12,1,1,0,0,515,0
13,1,1,0,0,522,0
14,1,1,0,0,528,0
15,1,1,0,0,534,0
0,1,1,0,0,539,0
1,1,1,0,0,543,0
2,1,1,0,0,546,0
3,1,1,0,0,548,0
4,1,1,0,0,551,0
5,1,1,0,0,551,0
6,1,1,0,0,551,0
7,1,1,0,0,551,0
8,1,1,0,0,551,0
9,1,1,0,0,550,0
10,1,1,0,0,550,0
11,1,1,0,0,551,0
12,1,1,0,0,551,0
13,1,1,0,0,553,0
14,1,1,0,0,556,0
15,1,1,0,0,558,0
0,1,1,0,0,563,0
1,1,1,0,0,568,0
2,1,1,0,0,572,0
3,1,1,0,0,575,0
4,1,1,0,0,579,0
5,1,1,0,0,580,0
6,1,1,0,0,582,0
7,1,1,0,0,583,0
8,1,1,0,0,583,0
9,1,1,0,0,583,0
10,1,1,0,0,582,0
11,1,1,0,0,580,0
12,1,1,0,0,577,0
13,1,1,0,0,576,0
14,1,1,0,0,575,0
15,1,1,0,0,574,0
0,1,1,0,0,574,0
1,1,1,0,0,573,0
2,1,1,0,0,574,0
3,1,1,0,0,576,0
4,1,1,0,0,579,0
5,1,1,0,0,583,0
6,1,1,0,0,585,0
7,1,1,0,0,588,0
8,1,1,0,0,590,0
9,1,1,0,0,591,0
10,1,1,0,0,591,0
11,1,1,0,0,591,0
12,1,1,0,0,591,0
13,1,1,0,0,588,0
14,1,1,0,0,586,0
15,1,1,0,0,583,0
0,1,1,0,0,579,0
1,1,1,0,0,575,0
2,1,1,0,0,574,0
3,1,1,0,0,572,0
4,1,1,0,0,568,0
5,1,1,0,0,568,0
6,1,1,0,0,569,0
7,1,1,0,0,571,0
8,1,1,0,0,575,0
9,1,1,0,0,579,0
10,1,1,0,0,581,0
11,1,1,0,0,582,0
12,1,1,0,0,583,0
13,1,1,0,0,585,0
14,1,1,0,0,586,0
15,1,1,0,0,587,0
0,1,1,0,0,586,0
1,1,1,0,0,584,0
2,1,1,0,0,581,0
3,1,1,0,0,579,0
4,1,1,0,0,576,0
5,1,1,0,0,573,0
6,1,1,0,0,571,0
7,1,1,0,0,568,0
8,1,1,0,0,566,0
9,1,1,0,0,565,0
10,1,1,0,0,565,0
11,1,1,0,0,565,0
12,1,1,0,0,567,0
13,1,1,0,0,570,0
14,1,1,0,0,572,0
15,1,1,0,0,574,0
0,1,1,0,0,575,0
1,1,1,0,0,576,0
2,1,1,0,0,576,0
3,1,1,0,0,577,0
4,1,1,0,0,577,0
5,1,1,0,0,575,0
6,1,1,0,0,572,0
7,1,1,0,0,570,0
8,1,1,0,0,565,0
9,1,1,0,0,561,0
10,1,1,0,0,560,0
11,1,1,0,0,558,0
12,1,1,0,0,556,0
13,1,1,0,0,555,0
14,1,1,0,0,555,0
15,1,1,0,0,556,0
0,1,1,0,0,557,0
1,1,1,0,0,560,0
2,1,1,0,0,563,0
3,1,1,0,0,566,0
4,1,1,0,0,567,0
5,1,1,0,0,568,0
6,1,1,0,0,568,0
7,1,1,0,0,568,0
8,1,1,0,0,568,0
9,1,1,0,0,567,0
10,1,1,0,0,565,0
11,1,1,0,0,562,0
12,1,1,0,0,559,0
13,1,1,0,0,555,0
14,1,1,0,0,552,0
15,1,1,0,0,551,0
0,1,1,0,0,551,0
1,1,1,0,0,551,0
2,1,1,0,0,551,0
3,1,1,0,0,552,0
4,1,1,0,0,555,0
5,1,1,0,0,559,0
6,1,1,0,0,561,0
7,1,1,0,0,563,0
8,1,1,0,0,563,0
9,1,1,0,0,563,0
10,1,1,0,0,564,0
11,1,1,0,0,564,0
12,1,1,0,0,564,0
13,1,1,0,0,562,0
14,1,1,0,0,559,0
15,1,1,0,0,556,0
0,1,1,0,0,554,0
1,1,1,0,0,551,0
2,1,1,0,0,548,0
3,1,1,0,0,547,0
4,1,1,0,0,546,0
5,1,1,0,0,546,0
6,1,1,0,0,547,0
7,1,1,0,0,549,0
8,1,1,0,0,551,0
9,1,1,0,0,556,0
10,1,1,0,0,558,0
11,1,1,0,0,560,0
12,1,1,0,0,561,0
13,1,1,0,0,562,0
14,1,1,0,0,563,0
15,1,1,0,0,562,0
0,1,1,0,0,561,0
1,1,1,0,0,559,0
2,1,1,0,0,557,0
3,1,1,0,0,554,0
4,1,1,0,0,551,0
5,1,1,0,0,549,0
6,1,1,0,0,547,0
7,1,1,0,0,545,0
8,1,1,0,0,544,0
9,1,1,0,0,544,0
10,1,1,0,0,544,0
11,1,1,0,0,546,0
12,1,1,0,0,548,0
13,1,1,0,0,551,0
14,1,1,0,0,553,0
15,1,1,0,0,556,0
0,1,1,0,0,556,0
1,1,1,0,0,557,0
2,1,1,0,0,557,0
3,1,1,0,0,556,0
4,1,1,0,0,555,0
5,1,1,0,0,553,0
6,1,1,0,0,550,0
7,1,1,0,0,546,0
8,1,1,0,0,543,0
9,1,1,0,0,539,0
10,1,1,0,0,536,0
11,1,1,0,0,535,0
12,1,1,0,0,531,0
13,1,1,0,0,531,0
14,1,1,0,0,532,0
15,1,1,0,0,532,0
0,1,1,0,0,535,0
1,1,1,0,0,538,0
2,1,1,0,0,542,0
3,1,1,0,0,543,0
4,1,1,0,0,544,0
5,1,1,0,0,545,0
6,1,1,0,0,545,0
7,1,1,0,0,545,0
8,1,1,0,0,545,0
9,1,1,0,0,543,0
10,1,1,0,0,541,0
11,1,1,0,0,539,0
12,1,1,0,0,536,0
13,1,1,0,0,533,0
14,1,1,0,0,531,0
15,1,1,0,0,530,0
0,1,1,0,0,528,0
1,1,1,0,0,527,0
2,1,1,0,0,527,0
3,1,1,0,0,529,0
4,1,1,0,0,531,0
5,1,1,0,0,535,0
6,1,1,0,0,539,0
7,1,1,0,0,541,0
8,1,1,0,0,543,0
9,1,1,0,0,543,0
10,1,1,0,0,544,0
11,1,1,0,0,545,0
12,1,1,0,0,545,0
13,1,1,0,0,543,0
14,1,1,0,0,541,0
15,1,1,0,0,538,0
0,1,1,0,0,534,0
1,1,1,0,0,531,0
2,1,1,0,0,529,0
3,1,1,0,0,528,0
4,1,1,0,0,527,0
5,1,1,0,0,526,0
6,1,1,0,0,526,0
7,1,1,0,0,527,0
8,1,1,0,0,529,0
9,1,1,0,0,532,0
10,1,1,0,0,535,0
11,1,1,0,0,538,0
12,1,1,0,0,540,0
13,1,1,0,0,540,0
14,1,1,0,0,541,0
15,1,1,0,0,541,0
0,1,1,0,0,540,0
1,1,1,0,0,537,0
2,1,1,0,0,534,0
3,1,1,0,0,531,0
4,1,1,0,0,527,0
5,1,1,0,0,524,0
6,1,1,0,0,522,0
7,1,1,0,0,520,0
8,1,1,0,0,520,0
9,1,1,0,0,520,0
10,1,1,0,0,521,0
11,1,1,0,0,524,0
12,1,1,0,0,527,0
13,1,1,0,0,531,0
14,1,1,0,0,535,0
15,1,1,0,0,537,0
0,1,1,0,0,538,0
1,1,1,0,0,539,0
2,1,1,0,0,539,0
3,1,1,0,0,540,0
4,1,1,0,0,540,0
5,1,1,0,0,538,0
6,1,1,0,0,535,0
7,1,1,0,0,533,0
8,1,1,0,0,529,0
9,1,1,0,0,526,0
10,1,1,0,0,523,0
11,1,1,0,0,521,0
12,1,1,0,0,520,0
13,1,1,0,0,519,0
14,1,1,0,0,520,0
15,1,1,0,0,520,0
0,1,1,0,0,522,0
1,1,1,0,0,525,0
2,1,1,0,0,527,0
3,1,1,0,0,528,0
4,1,1,0,0,529,0
5,1,1,0,0,530,0
6,1,1,0,0,531,0
7,1,1,0,0,531,0
8,1,1,0,0,531,0
9,1,1,0,0,529,0
10,1,1,0,0,526,0
11,1,1,0,0,524,0
12,1,1,0,0,521,0
13,1,1,0,0,519,0
14,1,1,0,0,517,0
15,1,1,0,0,515,0
0,1,1,0,0,513,0
1,1,1,0,0,512,0
2,1,1,0,0,512,0
3,1,1,0,0,515,0
4,1,1,0,0,518,0
5,1,1,0,0,521,0
6,1,1,0,0,525,0
7,1,1,0,0,528,0
8,1,1,0,0,530,0
9,1,1,0,0,531,0
10,1,1,0,0,531,0
11,1,1,0,0,532,0
12,1,1,0,0,531,0
13,1,1,0,0,530,0
14,1,1,0,0,528,0
15,1,1,0,0,525,0
0,1,1,0,0,523,0
1,1,1,0,0,520,0
2,1,1,0,0,519,0
3,1,1,0,0,518,0
4,1,1,0,0,515,0
5,1,1,0,0,514,0
6,1,1,0,0,515,0
7,1,1,0,0,517,0
8,1,1,0,0,519,0
9,1,1,0,0,522,0
10,1,1,0,0,525,0
11,1,1,0,0,527,0
12,1,1,0,0,529,0
13,1,1,0,0,529,0
14,1,1,0,0,530,0
15,1,1,0,0,531,0
0,1,1,0,0,531,0
1,1,1,0,0,530,0
2,1,1,0,0,528,0
3,1,1,0,0,525,0
4,1,1,0,0,523,0
5,1,1,0,0,521,0
6,1,1,0,0,519,0
7,1,1,0,0,519,0
8,1,1,0,0,518,0
9,1,1,0,0,516,0
10,1,1,0,0,517,0
11,1,1,0,0,518,0
12,1,1,0,0,519,0
13,1,1,0,0,523,0
14,1,1,0,0,526,0
15,1,1,0,0,527,0
0,1,1,0,0,528,0
1,1,1,0,0,529,0
2,1,1,0,0,530,0
3,1,1,0,0,531,0
4,1,1,0,0,531,0
5,1,1,0,0,530,0
6,1,1,0,0,527,0
7,1,1,0,0,524,0
8,1,1,0,0,520,0
9,1,1,0,0,518,0
10,1,1,0,0,516,0
11,1,1,0,0,516,0
12,1,1,0,0,515,0
13,1,1,0,0,513,0
14,1,1,0,0,513,0
15,1,1,0,0,514,0
0,1,1,0,0,516,0
1,1,1,0,0,519,0
2,1,1,0,0,522,0
3,1,1,0,0,524,0
4,1,1,0,0,525,0
5,1,1,0,0,525,0
6,1,1,0,0,525,0
7,1,1,0,0,524,0
8,1,1,0,0,524,0
9,1,1,0,0,522,0
10,1,1,0,0,519,0
11,1,1,0,0,516,0
12,1,1,0,0,512,0
13,1,1,0,0,507,0
14,1,1,0,0,504,0
15,1,1,0,0,502,0
0,1,1,0,0,502,0
1,1,1,0,0,502,0
2,1,1,0,0,502,0
3,1,1,0,0,504,0
4,1,1,0,0,507,0
5,1,1,0,0,511,0
6,1,1,0,0,515,0
7,1,1,0,0,518,0
8,1,1,0,0,519,0
9,1,1,0,0,522,0
10,1,1,0,0,523,0
11,1,1,0,0,524,0
12,1,1,0,0,524,0
13,1,1,0,0,523,0
14,1,1,0,0,520,0
15,1,1,0,0,516,0
0,1,1,0,0,512,0
1,1,1,0,0,509,0
2,1,1,0,0,504,0
3,1,1,0,0,502,0
4,1,1,0,0,501,0
5,1,1,0,0,500,0
6,1,1,0,0,501,0
7,1,1,0,0,502,0
8,1,1,0,0,505,0
9,1,1,0,0,508,0
10,1,1,0,0,512,0
11,1,1,0,0,515,0
12,1,1,0,0,517,0
13,1,1,0,0,517,0
14,1,1,0,0,517,0
15,1,1,0,0,518,0
0,1,1,0,0,518,0
1,1,1,0,0,516,0
2,1,1,0,0,514,0
3,1,1,0,0,512,0
4,1,1,0,0,510,0
5,1,1,0,0,508,0
6,1,1,0,0,507,0
7,1,1,0,0,506,0
8,1,1,0,0,506,0
9,1,1,0,0,507,0
10,1,1,0,0,509,0
11,1,1,0,0,511,0
12,1,1,0,0,515,0
13,1,1,0,0,518,0
14,1,1,0,0,522,0
15,1,1,0,0,524,0
0,1,1,0,0,526,0
1,1,1,0,0,527,0
2,1,1,0,0,527,0
3,1,1,0,0,528,0
4,1,1,0,0,528,0
5,1,1,0,0,527,0
6,1,1,0,0,524,0
7,1,1,0,0,521,0
8,1,1,0,0,518,0
9,1,1,0,0,516,0
10,1,1,0,0,515,0
11,1,1,0,0,513,0
12,1,1,0,0,512,0
13,1,1,0,0,510,0
14,1,1,0,0,511,0
15,1,1,0,0,511,0
0,1,1,0,0,512,0
1,1,1,0,0,515,0
2,1,1,0,0,517,0
3,1,1,0,0,518,0
4,1,1,0,0,519,0
5,1,1,0,0,520,0
6,1,1,0,0,521,0
7,1,1,0,0,522,0
8,1,1,0,0,522,0
9,1,1,0,0,521,0
10,1,1,0,0,519,0
11,1,1,0,0,516,0
12,1,1,0,0,513,0
13,1,1,0,0,510,0
14,1,1,0,0,508,0
15,1,1,0,0,506,0
0,1,1,0,0,504,0
1,1,1,0,0,502,0
2,1,1,0,0,503,0
3,1,1,0,0,504,0
4,1,1,0,0,507,0
5,1,1,0,0,511,0
6,1,1,0,0,515,0
7,1,1,0,0,519,0
8,1,1,0,0,521,0
9,1,1,0,0,523,0
10,1,1,0,0,524,0
11,1,1,0,0,526,0
12,1,1,0,0,526,0
13,1,1,0,0,524,0
14,1,1,0,0,522,0
15,1,1,0,0,519,0
0,1,1,0,0,515,0
1,1,1,0,0,511,0
2,1,1,0,0,508,0
3,1,1,0,0,508,0
4,1,1,0,0,507,0
5,1,1,0,0,506,0
6,1,1,0,0,506,0
7,1,1,0,0,508,0
8,1,1,0,0,510,0
9,1,1,0,0,513,0
10,1,1,0,0,516,0
11,1,1,0,0,518,0
12,1,1,0,0,521,0
13,1,1,0,0,522,0
14,1,1,0,0,523,0
15,1,1,0,0,523,0
0,1,1,0,0,522,0
1,1,1,0,0,520,0
2,1,1,0,0,518,0
3,1,1,0,0,515,0
4,1,1,0,0,512,0
5,1,1,0,0,508,0
6,1,1,0,0,505,0
7,1,1,0,0,504,0
8,1,1,0,0,502,0
9,1,1,0,0,501,0
10,1,1,0,0,501,0
11,1,1,0,0,502,0
12,1,1,0,0,504,0
13,1,1,0,0,508,0
14,1,1,0,0,511,0
15,1,1,0,0,512,0
0,1,1,0,0,513,0
1,1,1,0,0,512,0
2,1,1,0,0,511,0
3,1,1,0,0,508,0
4,1,1,0,0,505,0
5,1,1,0,0,499,0
6,1,1,0,0,490,0
7,1,1,0,0,479,0
8,1,1,0,0,468,0
9,1,1,0,0,458,0
10,1,1,0,0,449,0
11,1,1,0,0,441,0
12,1,1,0,0,434,0
13,1,1,0,0,428,0
14,1,1,0,0,425,0
15,1,1,0,0,423,0
0,1,1,0,0,424,0
1,1,1,0,0,427,0
2,1,1,0,0,428,0
3,1,1,0,0,428,0
4,1,1,0,0,426,0
5,1,1,0,0,425,0
6,1,1,0,0,426,0
7,1,1,0,0,427,0
8,1,1,0,0,429,0
9,1,1,0,0,432,0
10,1,1,0,0,438,0
11,1,1,0,0,447,0
12,1,1,0,0,456,0
13,1,1,0,0,467,0
14,1,1,0,0,478,0
15,1,1,0,0,489,0
0,1,1,0,0,501,0
1,1,1,0,0,514,0
2,1,1,0,0,529,0
3,1,1,0,0,545,0
4,1,1,0,0,566,0
5,1,1,0,0,589,0
6,1,1,0,0,614,0
7,1,1,0,0,639,0
8,1,1,0,0,666,0
9,1,1,0,0,696,0
10,1,1,0,0,723,0
11,1,1,0,0,748,0
12,1,1,0,0,766,0
13,1,1,0,0,776,0
14,1,1,0,0,779,0
15,1,1,0,0,776,0
0,1,1,0,0,772,0
1,1,1,0,0,769,0
2,1,1,0,0,770,0
3,1,1,0,0,769,0
4,1,1,0,0,763,0
5,1,1,0,0,755,0
6,1,1,0,0,745,0
7,1,1,0,0,734,0
8,1,1,0,0,723,0
9,1,1,0,0,712,0
10,1,1,0,0,699,0
11,1,1,0,0,684,0
12,1,1,0,0,668,0
13,1,1,0,0,648,0
14,1,1,0,0,629,0
15,1,1,0,0,609,0
0,1,1,0,0,590,0
1,1,1,0,0,572,0
2,1,1,0,0,554,0
3,1,1,0,0,539,0
4,1,1,0,0,524,0
5,1,1,0,0,512,0
6,1,1,0,0,502,0
7,1,1,0,0,493,0
8,1,1,0,0,484,0
9,1,1,0,0,475,0
10,1,1,0,0,470,0
11,1,1,0,0,466,0
12,1,1,0,0,466,0
13,1,1,0,0,467,0
14,1,1,0,0,470,0
15,1,1,0,0,471,0
0,1,1,0,0,471,0
1,1,1,0,0,471,0
2,1,1,0,0,471,0
3,1,1,0,0,470,0
4,1,1,0,0,470,0
5,1,1,0,0,467,0
6,1,1,0,0,463,0
7,1,1,0,0,460,0
8,1,1,0,0,456,0
9,1,1,0,0,453,0
10,1,1,0,0,451,0
11,1,1,0,0,450,0
12,1,1,0,0,448,0
13,1,1,0,0,448,0
14,1,1,0,0,448,0
15,1,1,0,0,448,0
0,1,1,0,0,450,0
1,1,1,0,0,452,0
2,1,1,0,0,456,0
3,1,1,0,0,459,0
4,1,1,0,0,461,0
5,1,1,0,0,462,0
6,1,1,0,0,463,0
7,1,1,0,0,463,0
8,1,1,0,0,463,0
9,1,1,0,0,461,0
10,1,1,0,0,458,0
11,1,1,0,0,455,0
12,1,1,0,0,452,0
13,1,1,0,0,448,0
14,1,1,0,0,445,0
15,1,1,0,0,444,0
0,1,1,0,0,444,0
1,1,1,0,0,444,0
2,1,1,0,0,445,0
3,1,1,0,0,448,0
4,1,1,0,0,451,0
5,1,1,0,0,455,0
6,1,1,0,0,460,0
7,1,1,0,0,463,0
8,1,1,0,0,465,0
9,1,1,0,0,466,0
10,1,1,0,0,467,0
11,1,1,0,0,469,0
12,1,1,0,0,469,0
13,1,1,0,0,467,0
14,1,1,0,0,465,0
15,1,1,0,0,463,0
0,1,1,0,0,461,0
1,1,1,0,0,460,0
2,1,1,0,0,457,0
3,1,1,0,0,455,0
4,1,1,0,0,455,0
5,1,1,0,0,455,0
6,1,1,0,0,456,0
7,1,1,0,0,458,0
8,1,1,0,0,461,0
9,1,1,0,0,465,0
10,1,1,0,0,469,0
11,1,1,0,0,473,0
12,1,1,0,0,476,0
13,1,1,0,0,478,0
14,1,1,0,0,480,0
15,1,1,0,0,481,0
0,1,1,0,0,482,0
1,1,1,0,0,481,0
2,1,1,0,0,479,0
3,1,1,0,0,476,0
4,1,1,0,0,473,0
5,1,1,0,0,471,0
6,1,1,0,0,469,0
7,1,1,0,0,467,0
8,1,1,0,0,466,0
9,1,1,0,0,466,0
10,1,1,0,0,468,0
11,1,1,0,0,470,0
12,1,1,0,0,473,0
13,1,1,0,0,476,0
14,1,1,0,0,481,0
15,1,1,0,0,484,0
0,1,1,0,0,486,0
1,1,1,0,0,487,0
2,1,1,0,0,487,0
3,1,1,0,0,489,0
4,1,1,0,0,490,0
5,1,1,0,0,489,0
6,1,1,0,0,487,0
7,1,1,0,0,485,0
8,1,1,0,0,482,0
9,1,1,0,0,479,0
10,1,1,0,0,478,0
11,1,1,0,0,478,0
12,1,1,0,0,475,0
13,1,1,0,0,476,0
14,1,1,0,0,476,0
15,1,1,0,0,478,0
0,1,1,0,0,480,0
1,1,1,0,0,484,0
2,1,1,0,0,488,0
3,1,1,0,0,492,0
4,1,1,0,0,494,0
5,1,1,0,0,496,0
6,1,1,0,0,497,0
7,1,1,0,0,498,0
8,1,1,0,0,498,0
9,1,1,0,0,497,0
10,1,1,0,0,495,0
11,1,1,0,0,492,0
12,1,1,0,0,489,0
13,1,1,0,0,486,0
14,1,1,0,0,484,0
15,1,1,0,0,484,0
0,1,1,0,0,482,0
1,1,1,0,0,480,0
2,1,1,0,0,481,0
3,1,1,0,0,482,0
4,1,1,0,0,484,0
5,1,1,0,0,487,0
6,1,1,0,0,492,0
7,1,1,0,0,495,0
8,1,1,0,0,497,0
9,1,1,0,0,497,0
10,1,1,0,0,498,0
11,1,1,0,0,499,0
12,1,1,0,0,499,0
13,1,1,0,0,498,0
14,1,1,0,0,496,0
15,1,1,0,0,493,0
0,1,1,0,0,489,0
1,1,1,0,0,487,0
2,1,1,0,0,485,0
3,1,1,0,0,484,0
4,1,1,0,0,482,0
5,1,1,0,0,481,0
6,1,1,0,0,481,0
7,1,1,0,0,481,0
8,1,1,0,0,485,0
9,1,1,0,0,488,0
10,1,1,0,0,492,0
11,1,1,0,0,495,0
12,1,1,0,0,497,0
13,1,1,0,0,498,0
14,1,1,0,0,499,0
15,1,1,0,0,500,0
0,1,1,0,0,499,0
1,1,1,0,0,497,0
2,1,1,0,0,495,0
3,1,1,0,0,492,0
4,1,1,0,0,488,0
5,1,1,0,0,484,0
6,1,1,0,0,482,0
7,1,1,0,0,479,0
8,1,1,0,0,477,0
9,1,1,0,0,475,0
10,1,1,0,0,474,0
11,1,1,0,0,474,0
12,1,1,0,0,476,0
13,1,1,0,0,480,0
14,1,1,0,0,483,0
15,1,1,0,0,487,0
0,1,1,0,0,490,0
1,1,1,0,0,491,0
2,1,1,0,0,493,0
3,1,1,0,0,494,0
4,1,1,0,0,494,0
5,1,1,0,0,493,0
6,1,1,0,0,491,0
7,1,1,0,0,487,0
8,1,1,0,0,484,0
9,1,1,0,0,480,0
10,1,1,0,0,477,0
11,1,1,0,0,475,0
12,1,1,0,0,473,0
13,1,1,0,0,472,0
14,1,1,0,0,471,0
15,1,1,0,0,472,0
0,1,1,0,0,474,0
1,1,1,0,0,477,0
2,1,1,0,0,479,0
3,1,1,0,0,481,0
4,1,1,0,0,482,0
5,1,1,0,0,481,0
6,1,1,0,0,481,0
7,1,1,0,0,481,0
8,1,1,0,0,480,0
9,1,1,0,0,478,0
10,1,1,0,0,476,0
11,1,1,0,0,472,0
12,1,1,0,0,469,0
13,1,1,0,0,465,0
14,1,1,0,0,462,0
15,1,1,0,0,459,0
0,1,1,0,0,458,0
1,1,1,0,0,457,0
2,1,1,0,0,457,0
3,1,1,0,0,459,0
4,1,1,0,0,462,0
5,1,1,0,0,466,0
6,1,1,0,0,470,0
7,1,1,0,0,473,0
8,1,1,0,0,476,0
9,1,1,0,0,478,0
10,1,1,0,0,479,0
11,1,1,0,0,480,0
12,1,1,0,0,480,0
13,1,1,0,0,480,0
14,1,1,0,0,479,0
15,1,1,0,0,477,0
0,1,1,0,0,475,0
1,1,1,0,0,473,0
2,1,1,0,0,473,0
3,1,1,0,0,473,0
4,1,1,0,0,473,0
5,1,1,0,0,473,0
6,1,1,0,0,475,0
7,1,1,0,0,478,0
8,1,1,0,0,482,0
9,1,1,0,0,488,0
10,1,1,0,0,494,0
11,1,1,0,0,498,0
12,1,1,0,0,502,0
13,1,1,0,0,505,0
14,1,1,0,0,509,0
15,1,1,0,0,511,0
0,1,1,0,0,513,0
1,1,1,0,0,515,0
2,1,1,0,0,514,0
3,1,1,0,0,514,0
4,1,1,0,0,512,0
5,1,1,0,0,511,0
6,1,1,0,0,511,0
7,1,1,0,0,512,0
8,1,1,0,0,511,0
9,1,1,0,0,511,0
10,1,1,0,0,513,0
11,1,1,0,0,517,0
12,1,1,0,0,522,0
13,1,1,0,0,528,0
14,1,1,0,0,535,0
15,1,1,0,0,540,0
0,1,1,0,0,544,0
1,1,1,0,0,547,0
2,1,1,0,0,550,0
3,1,1,0,0,551,0
4,1,1,0,0,553,0
5,1,1,0,0,553,0
6,1,1,0,0,552,0
7,1,1,0,0,550,0
8,1,1,0,0,548,0
9,1,1,0,0,546,0
10,1,1,0,0,545,0
11,1,1,0,0,546,0
12,1,1,0,0,545,0
13,1,1,0,0,544,0
14,1,1,0,0,545,0
15,1,1,0,0,547,0
0,1,1,0,0,551,0
1,1,1,0,0,555,0
2,1,1,0,0,559,0
3,1,1,0,0,563,0
4,1,1,0,0,565,0
5,1,1,0,0,566,0
6,1,1,0,0,568,0
7,1,1,0,0,569,0
8,1,1,0,0,569,0
9,1,1,0,0,568,0
10,1,1,0,0,566,0
11,1,1,0,0,563,0
12,1,1,0,0,560,0
13,1,1,0,0,558,0
14,1,1,0,0,556,0
15,1,1,0,0,555,0
0,1,1,0,0,553,0
1,1,1,0,0,552,0
2,1,1,0,0,551,0
3,1,1,0,0,552,0
4,1,1,0,0,555,0
5,1,1,0,0,558,0
6,1,1,0,0,561,0
7,1,1,0,0,564,0
8,1,1,0,0,567,0
9,1,1,0,0,567,0
10,1,1,0,0,568,0
11,1,1,0,0,568,0
12,1,1,0,0,568,0
13,1,1,0,0,566,0
14,1,1,0,0,563,0
15,1,1,0,0,560,0
0,1,1,0,0,557,0
1,1,1,0,0,554,0
2,1,1,0,0,551,0
3,1,1,0,0,550,0
4,1,1,0,0,549,0
5,1,1,0,0,547,0
6,1,1,0,0,547,0
7,1,1,0,0,548,0
8,1,1,0,0,550,0
9,1,1,0,0,553,0
10,1,1,0,0,557,0
11,1,1,0,0,560,0
12,1,1,0,0,561,0
13,1,1,0,0,561,0
14,1,1,0,0,562,0
15,1,1,0,0,562,0
0,1,1,0,0,561,0
1,1,1,0,0,559,0
2,1,1,0,0,556,0
3,1,1,0,0,553,0
4,1,1,0,0,549,0
5,1,1,0,0,545,0
6,1,1,0,0,542,0
7,1,1,0,0,540,0
8,1,1,0,0,539,0
9,1,1,0,0,539,0
10,1,1,0,0,538,0
11,1,1,0,0,540,0
12,1,1,0,0,542,0
13,1,1,0,0,545,0
14,1,1,0,0,548,0
15,1,1,0,0,551,0
0,1,1,0,0,553,0
1,1,1,0,0,554,0
2,1,1,0,0,555,0
3,1,1,0,0,556,0
4,1,1,0,0,556,0
5,1,1,0,0,555,0
6,1,1,0,0,552,0
7,1,1,0,0,548,0
8,1,1,0,0,544,0
9,1,1,0,0,541,0
10,1,1,0,0,536,0
11,1,1,0,0,533,0
12,1,1,0,0,530,0
13,1,1,0,0,529,0
14,1,1,0,0,529,0
15,1,1,0,0,531,0
0,1,1,0,0,534,0
1,1,1,0,0,539,0
2,1,1,0,0,544,0
3,1,1,0,0,548,0
4,1,1,0,0,551,0
5,1,1,0,0,553,0
6,1,1,0,0,555,0
7,1,1,0,0,555,0
8,1,1,0,0,555,0
9,1,1,0,0,553,0
10,1,1,0,0,551,0
11,1,1,0,0,547,0
12,1,1,0,0,543,0
13,1,1,0,0,540,0
14,1,1,0,0,537,0
15,1,1,0,0,534,0
0,1,1,0,0,532,0
1,1,1,0,0,531,0
2,1,1,0,0,531,0
3,1,1,0,0,531,0
4,1,1,0,0,533,0
5,1,1,0,0,536,0
6,1,1,0,0,539,0
7,1,1,0,0,540,0
8,1,1,0,0,542,0
9,1,1,0,0,542,0
10,1,1,0,0,543,0
11,1,1,0,0,543,0
12,1,1,0,0,543,0
13,1,1,0,0,541,0
14,1,1,0,0,538,0
15,1,1,0,0,534,0
0,1,1,0,0,530,0
1,1,1,0,0,526,0
2,1,1,0,0,523,0
3,1,1,0,0,522,0
4,1,1,0,0,519,0
5,1,1,0,0,516,0
6,1,1,0,0,515,0
7,1,1,0,0,516,0
8,1,1,0,0,519,0
9,1,1,0,0,522,0
10,1,1,0,0,524,0
11,1,1,0,0,527,0
12,1,1,0,0,529,0
13,1,1,0,0,530,0
14,1,1,0,0,531,0
15,1,1,0,0,531,0
0,1,1,0,0,531,0
1,1,1,0,0,530,0
2,1,1,0,0,527,0
3,1,1,0,0,524,0
4,1,1,0,0,520,0
5,1,1,0,0,517,0
6,1,1,0,0,515,0
7,1,1,0,0,513,0
8,1,1,0,0,511,0
9,1,1,0,0,509,0
10,1,1,0,0,508,0
11,1,1,0,0,509,0
12,1,1,0,0,512,0
13,1,1,0,0,515,0
14,1,1,0,0,519,0
15,1,1,0,0,522,0
0,1,1,0,0,525,0
1,1,1,0,0,526,0
2,1,1,0,0,527,0
3,1,1,0,0,528,0
4,1,1,0,0,528,0
5,1,1,0,0,527,0
6,1,1,0,0,525,0
7,1,1,0,0,521,0
8,1,1,0,0,518,0
9,1,1,0,0,515,0
10,1,1,0,0,513,0
11,1,1,0,0,512,0
12,1,1,0,0,511,0
13,1,1,0,0,509,0
14,1,1,0,0,510,0
15,1,1,0,0,512,0
0,1,1,0,0,514,0
1,1,1,0,0,517,0
2,1,1,0,0,520,0
3,1,1,0,0,523,0
4,1,1,0,0,525,0
5,1,1,0,0,526,0
6,1,1,0,0,526,0
7,1,1,0,0,527,0
8,1,1,0,0,527,0
9,1,1,0,0,525,0
10,1,1,0,0,523,0
11,1,1,0,0,519,0
12,1,1,0,0,516,0
13,1,1,0,0,513,0
14,1,1,0,0,511,0
15,1,1,0,0,510,0
0,1,1,0,0,509,0
1,1,1,0,0,508,0
2,1,1,0,0,510,0
3,1,1,0,0,511,0
4,1,1,0,0,513,0
5,1,1,0,0,517,0
6,1,1,0,0,520,0
7,1,1,0,0,523,0
8,1,1,0,0,524,0
9,1,1,0,0,525,0
10,1,1,0,0,524,0
11,1,1,0,0,525,0
12,1,1,0,0,525,0
13,1,1,0,0,523,0
14,1,1,0,0,520,0
15,1,1,0,0,518,0
0,1,1,0,0,514,0
1,1,1,0,0,510,0
2,1,1,0,0,507,0
3,1,1,0,0,505,0
4,1,1,0,0,504,0
5,1,1,0,0,504,0
6,1,1,0,0,504,0
7,1,1,0,0,505,0
8,1,1,0,0,508,0
9,1,1,0,0,511,0
10,1,1,0,0,515,0
11,1,1,0,0,518,0
12,1,1,0,0,520,0
13,1,1,0,0,521,0
14,1,1,0,0,521,0
15,1,1,0,0,521,0
0,1,1,0,0,520,0
1,1,1,0,0,518,0
2,1,1,0,0,515,0
3,1,1,0,0,512,0
4,1,1,0,0,508,0
5,1,1,0,0,505,0
6,1,1,0,0,502,0
7,1,1,0,0,500,0
8,1,1,0,0,500,0
9,1,1,0,0,501,0
10,1,1,0,0,502,0
11,1,1,0,0,503,0
12,1,1,0,0,505,0
13,1,1,0,0,508,0
14,1,1,0,0,512,0
15,1,1,0,0,515,0
0,1,1,0,0,518,0
1,1,1,0,0,518,0
2,1,1,0,0,519,0
3,1,1,0,0,518,0
4,1,1,0,0,518,0
5,1,1,0,0,516,0
6,1,1,0,0,515,0
7,1,1,0,0,512,0
8,1,1,0,0,510,0
9,1,1,0,0,507,0
10,1,1,0,0,505,0
11,1,1,0,0,502,0
12,1,1,0,0,500,0
13,1,1,0,0,499,0
14,1,1,0,0,500,0
15,1,1,0,0,501,0
0,1,1,0,0,503,0
1,1,1,0,0,506,0
2,1,1,0,0,510,0
3,1,1,0,0,513,0
4,1,1,0,0,515,0
5,1,1,0,0,517,0
6,1,1,0,0,518,0
7,1,1,0,0,519,0
8,1,1,0,0,519,0
9,1,1,0,0,518,0
10,1,1,0,0,516,0
11,1,1,0,0,513,0
12,1,1,0,0,510,0
13,1,1,0,0,507,0
14,1,1,0,0,505,0
15,1,1,0,0,503,0
0,1,1,0,0,500,0
1,1,1,0,0,499,0
2,1,1,0,0,499,0
3,1,1,0,0,499,0
4,1,1,0,0,502,0
5,1,1,0,0,505,0
6,1,1,0,0,509,0
7,1,1,0,0,512,0
8,1,1,0,0,513,0
9,1,1,0,0,514,0
10,1,1,0,0,515,0
11,1,1,0,0,515,0
12,1,1,0,0,516,0
13,1,1,0,0,515,0
14,1,1,0,0,513,0
15,1,1,0,0,510,0
0,1,1,0,0,507,0
1,1,1,0,0,503,0
2,1,1,0,0,500,0
3,1,1,0,0,499,0
4,1,1,0,0,498,0
5,1,1,0,0,496,0
6,1,1,0,0,497,0
7,1,1,0,0,499,0
8,1,1,0,0,501,0
9,1,1,0,0,505,0
10,1,1,0,0,509,0
11,1,1,0,0,512,0
12,1,1,0,0,515,0
13,1,1,0,0,517,0
14,1,1,0,0,518,0
15,1,1,0,0,518,0
0,1,1,0,0,519,0
1,1,1,0,0,517,0
2,1,1,0,0,514,0
3,1,1,0,0,511,0
4,1,1,0,0,509,0
5,1,1,0,0,506,0
6,1,1,0,0,504,0
7,1,1,0,0,503,0
8,1,1,0,0,502,0
9,1,1,0,0,500,0
10,1,1,0,0,500,0
11,1,1,0,0,501,0
12,1,1,0,0,503,0
13,1,1,0,0,506,0
14,1,1,0,0,510,0
15,1,1,0,0,512,0
0,1,1,0,0,514,0
1,1,1,0,0,515,0
2,1,1,0,0,515,0
3,1,1,0,0,515,0
4,1,1,0,0,515,0
5,1,1,0,0,514,0
6,1,1,0,0,513,0
7,1,1,0,0,510,0
8,1,1,0,0,507,0
9,1,1,0,0,504,0
10,1,1,0,0,502,0
11,1,1,0,0,501,0
12,1,1,0,0,500,0
13,1,1,0,0,500,0
14,1,1,0,0,500,0
15,1,1,0,0,501,0
0,1,1,0,0,503,0
1,1,1,0,0,506,0
2,1,1,0,0,510,0
3,1,1,0,0,513,0
4,1,1,0,0,515,0
5,1,1,0,0,516,0
6,1,1,0,0,517,0
7,1,1,0,0,517,0
8,1,1,0,0,517,0
9,1,1,0,0,515,0
10,1,1,0,0,512,0
11,1,1,0,0,510,0
12,1,1,0,0,507,0
13,1,1,0,0,503,0
14,1,1,0,0,499,0
15,1,1,0,0,497,0
0,1,1,0,0,497,0
1,1,1,0,0,497,0
2,1,1,0,0,497,0
3,1,1,0,0,498,0
4,1,1,0,0,499,0
5,1,1,0,0,503,0
6,1,1,0,0,507,0
7,1,1,0,0,510,0
8,1,1,0,0,512,0
9,1,1,0,0,513,0
10,1,1,0,0,513,0
11,1,1,0,0,513,0
12,1,1,0,0,513,0
13,1,1,0,0,512,0
14,1,1,0,0,511,0
15,1,1,0,0,508,0
0,1,1,0,0,506,0
1,1,1,0,0,504,0
2,1,1,0,0,500,0
3,1,1,0,0,498,0
4,1,1,0,0,498,0
5,1,1,0,0,498,0
6,1,1,0,0,498,0
7,1,1,0,0,499,0
8,1,1,0,0,500,0
9,1,1,0,0,504,0
10,1,1,0,0,507,0
11,1,1,0,0,511,0
12,1,1,0,0,513,0
13,1,1,0,0,515,0
14,1,1,0,0,516,0
15,1,1,0,0,518,0
0,1,1,0,0,519,0
1,1,1,0,0,517,0
2,1,1,0,0,515,0
3,1,1,0,0,512,0
4,1,1,0,0,509,0
5,1,1,0,0,507,0
6,1,1,0,0,504,0
7,1,1,0,0,503,0
8,1,1,0,0,501,0
9,1,1,0,0,500,0
10,1,1,0,0,500,0
11,1,1,0,0,501,0
12,1,1,0,0,502,0
13,1,1,0,0,505,0
14,1,1,0,0,509,0
15,1,1,0,0,511,0
0,1,1,0,0,513,0
1,1,1,0,0,515,0
2,1,1,0,0,516,0
3,1,1,0,0,516,0
4,1,1,0,0,516,0
5,1,1,0,0,515,0
6,1,1,0,0,513,0
7,1,1,0,0,511,0
8,1,1,0,0,508,0
9,1,1,0,0,505,0
10,1,1,0,0,504,0
11,1,1,0,0,504,0
12,1,1,0,0,501,0
13,1,1,0,0,499,0
14,1,1,0,0,499,0
15,1,1,0,0,499,0
0,1,1,0,0,501,0
1,1,1,0,0,503,0
2,1,1,0,0,506,0
3,1,1,0,0,508,0
4,1,1,0,0,511,0
5,1,1,0,0,512,0
6,1,1,0,0,513,0
7,1,1,0,0,513,0
8,1,1,0,0,513,0
9,1,1,0,0,512,0
10,1,1,0,0,510,0
11,1,1,0,0,508,0
12,1,1,0,0,505,0
13,1,1,0,0,502,0
14,1,1,0,0,500,0
15,1,1,0,0,499,0
0,1,1,0,0,498,0
1,1,1,0,0,496,0
2,1,1,0,0,495,0
3,1,1,0,0,496,0
4,1,1,0,0,498,0
5,1,1,0,0,501,0
6,1,1,0,0,506,0
7,1,1,0,0,509,0
8,1,1,0,0,512,0
9,1,1,0,0,514,0
10,1,1,0,0,515,0
11,1,1,0,0,515,0
12,1,1,0,0,515,0
13,1,1,0,0,513,0
14,1,1,0,0,511,0
15,1,1,0,0,508,0
0,1,1,0,0,505,0
1,1,1,0,0,502,0
2,1,1,0,0,499,0
3,1,1,0,0,497,0
4,1,1,0,0,495,0
5,1,1,0,0,493,0
6,1,1,0,0,492,0
7,1,1,0,0,492,0
8,1,1,0,0,495,0
9,1,1,0,0,498,0
10,1,1,0,0,502,0
11,1,1,0,0,506,0
12,1,1,0,0,509,0
13,1,1,0,0,511,0
14,1,1,0,0,512,0
15,1,1,0,0,513,0
0,1,1,0,0,514,0
1,1,1,0,0,514,0
2,1,1,0,0,512,0
3,1,1,0,0,510,0
4,1,1,0,0,506,0
5,1,1,0,0,502,0
6,1,1,0,0,498,0
7,1,1,0,0,496,0
8,1,1,0,0,494,0
9,1,1,0,0,494,0
10,1,1,0,0,493,0
11,1,1,0,0,494,0
12,1,1,0,0,497,0
13,1,1,0,0,500,0
14,1,1,0,0,505,0
15,1,1,0,0,508,0
0,1,1,0,0,511,0
1,1,1,0,0,512,0
2,1,1,0,0,513,0
3,1,1,0,0,513,0
4,1,1,0,0,515,0
5,1,1,0,0,514,0
6,1,1,0,0,512,0
7,1,1,0,0,511,0
8,1,1,0,0,508,0
9,1,1,0,0,505,0
10,1,1,0,0,502,0
11,1,1,0,0,500,0
12,1,1,0,0,500,0
13,1,1,0,0,500,0
14,1,1,0,0,502,0
15,1,1,0,0,504,0
0,1,1,0,0,507,0
1,1,1,0,0,512,0
2,1,1,0,0,515,0
3,1,1,0,0,519,0
4,1,1,0,0,521,0
5,1,1,0,0,522,0
6,1,1,0,0,524,0
7,1,1,0,0,524,0
8,1,1,0,0,524,0
9,1,1,0,0,523,0
10,1,1,0,0,521,0
11,1,1,0,0,519,0
12,1,1,0,0,516,0
13,1,1,0,0,513,0
14,1,1,0,0,510,0
15,1,1,0,0,508,0
0,1,1,0,0,506,0
1,1,1,0,0,504,0
2,1,1,0,0,505,0
3,1,1,0,0,506,0
4,1,1,0,0,508,0
5,1,1,0,0,511,0
6,1,1,0,0,515,0
7,1,1,0,0,518,0
8,1,1,0,0,520,0
9,1,1,0,0,521,0
10,1,1,0,0,522,0
11,1,1,0,0,523,0
12,1,1,0,0,524,0
13,1,1,0,0,524,0
14,1,1,0,0,522,0
15,1,1,0,0,519,0
0,1,1,0,0,517,0
1,1,1,0,0,514,0
2,1,1,0,0,511,0
3,1,1,0,0,509,0
4,1,1,0,0,507,0
5,1,1,0,0,505,0
6,1,1,0,0,505,0
7,1,1,0,0,506,0
8,1,1,0,0,508,0
9,1,1,0,0,511,0
10,1,1,0,0,513,0
11,1,1,0,0,517,0
12,1,1,0,0,519,0
13,1,1,0,0,521,0
14,1,1,0,0,523,0
15,1,1,0,0,523,0
0,1,1,0,0,523,0
1,1,1,0,0,522,0
2,1,1,0,0,520,0
3,1,1,0,0,517,0
4,1,1,0,0,514,0
5,1,1,0,0,510,0
6,1,1,0,0,508,0
7,1,1,0,0,506,0
8,1,1,0,0,504,0
9,1,1,0,0,502,0
10,1,1,0,0,500,0
11,1,1,0,0,501,0
12,1,1,0,0,503,0
13,1,1,0,0,507,0
14,1,1,0,0,512,0
15,1,1,0,0,515,0
0,1,1,0,0,518,0
1,1,1,0,0,520,0
2,1,1,0,0,521,0
3,1,1,0,0,522,0
4,1,1,0,0,523,0
5,1,1,0,0,523,0
6,1,1,0,0,521,0
7,1,1,0,0,519,0
8,1,1,0,0,517,0
9,1,1,0,0,514,0
10,1,1,0,0,512,0
11,1,1,0,0,511,0
12,1,1,0,0,509,0
13,1,1,0,0,507,0
14,1,1,0,0,506,0
15,1,1,0,0,506,0
0,1,1,0,0,507,0
1,1,1,0,0,510,0
2,1,1,0,0,513,0
3,1,1,0,0,516,0
4,1,1,0,0,518,0
5,1,1,0,0,519,0
6,1,1,0,0,519,0
7,1,1,0,0,519,0
8,1,1,0,0,519,0
9,1,1,0,0,516,0
10,1,1,0,0,512,0
11,1,1,0,0,507,0
12,1,1,0,0,498,0
13,1,1,0,0,487,0
14,1,1,0,0,477,0
15,1,1,0,0,468,0
0,1,1,0,0,459,0
1,1,1,0,0,451,0
2,1,1,0,0,444,0
3,1,1,0,0,438,0
4,1,1,0,0,433,0
5,1,1,0,0,432,0
6,1,1,0,0,434,0
7,1,1,0,0,436,0
8,1,1,0,0,437,0
9,1,1,0,0,436,0
10,1,1,0,0,433,0
11,1,1,0,0,431,0
12,1,1,0,0,429,0
13,1,1,0,0,427,0
14,1,1,0,0,424,0
15,1,1,0,0,422,0
0,1,1,0,0,423,0
1,1,1,0,0,425,0
2,1,1,0,0,433,0
3,1,1,0,0,445,0
4,1,1,0,0,458,0
5,1,1,0,0,471,0
6,1,1,0,0,485,0
7,1,1,0,0,500,0
8,1,1,0,0,517,0
9,1,1,0,0,536,0
10,1,1,0,0,556,0
11,1,1,0,0,576,0
12,1,1,0,0,600,0
13,1,1,0,0,624,0
14,1,1,0,0,649,0
15,1,1,0,0,679,0
0,1,1,0,0,709,0
1,1,1,0,0,738,0
2,1,1,0,0,762,0
3,1,1,0,0,780,0
4,1,1,0,0,789,0
5,1,1,0,0,792,0
6,1,1,0,0,789,0
7,1,1,0,0,785,0
8,1,1,0,0,785,0
9,1,1,0,0,788,0
10,1,1,0,0,789,0
11,1,1,0,0,788,0
12,1,1,0,0,784,0
13,1,1,0,0,777,0
14,1,1,0,0,768,0
15,1,1,0,0,758,0
0,1,1,0,0,746,0
1,1,1,0,0,731,0
2,1,1,0,0,713,0
3,1,1,0,0,695,0
4,1,1,0,0,674,0
5,1,1,0,0,652,0
6,1,1,0,0,628,0
7,1,1,0,0,606,0
8,1,1,0,0,585,0
9,1,1,0,0,565,0
10,1,1,0,0,547,0
11,1,1,0,0,531,0
12,1,1,0,0,518,0
13,1,1,0,0,506,0
14,1,1,0,0,497,0
15,1,1,0,0,489,0
0,1,1,0,0,483,0
1,1,1,0,0,480,0
2,1,1,0,0,478,0
3,1,1,0,0,477,0
4,1,1,0,0,476,0
5,1,1,0,0,475,0
6,1,1,0,0,475,0
7,1,1,0,0,474,0
8,1,1,0,0,473,0
9,1,1,0,0,471,0
10,1,1,0,0,467,0
11,1,1,0,0,463,0
12,1,1,0,0,459,0
13,1,1,0,0,454,0
14,1,1,0,0,451,0
15,1,1,0,0,449,0
0,1,1,0,0,447,0
1,1,1,0,0,445,0
2,1,1,0,0,444,0
3,1,1,0,0,445,0
4,1,1,0,0,447,0
5,1,1,0,0,449,0
6,1,1,0,0,452,0
7,1,1,0,0,455,0
8,1,1,0,0,458,0
9,1,1,0,0,459,0
10,1,1,0,0,460,0
11,1,1,0,0,460,0
12,1,1,0,0,461,0
13,1,1,0,0,460,0
14,1,1,0,0,458,0
15,1,1,0,0,455,0
0,1,1,0,0,452,0
1,1,1,0,0,449,0
2,1,1,0,0,448,0
3,1,1,0,0,446,0
4,1,1,0,0,445,0
5,1,1,0,0,443,0
6,1,1,0,0,442,0
7,1,1,0,0,443,0
8,1,1,0,0,446,0
9,1,1,0,0,448,0
10,1,1,0,0,452,0
11,1,1,0,0,455,0
12,1,1,0,0,459,0
13,1,1,0,0,460,0
14,1,1,0,0,462,0
15,1,1,0,0,463,0
0,1,1,0,0,463,0
1,1,1,0,0,463,0
2,1,1,0,0,461,0
3,1,1,0,0,460,0
4,1,1,0,0,458,0
5,1,1,0,0,455,0
6,1,1,0,0,452,0
7,1,1,0,0,451,0
8,1,1,0,0,450,0
9,1,1,0,0,449,0
10,1,1,0,0,449,0
11,1,1,0,0,449,0
12,1,1,0,0,451,0
13,1,1,0,0,454,0
14,1,1,0,0,459,0
15,1,1,0,0,462,0
0,1,1,0,0,465,0
1,1,1,0,0,467,0
2,1,1,0,0,468,0
3,1,1,0,0,469,0
4,1,1,0,0,470,0
5,1,1,0,0,469,0
6,1,1,0,0,468,0
7,1,1,0,0,465,0
8,1,1,0,0,463,0
9,1,1,0,0,460,0
10,1,1,0,0,456,0
11,1,1,0,0,455,0
12,1,1,0,0,454,0
13,1,1,0,0,453,0
14,1,1,0,0,453,0
15,1,1,0,0,455,0
0,1,1,0,0,457,0
1,1,1,0,0,461,0
2,1,1,0,0,465,0
3,1,1,0,0,468,0
4,1,1,0,0,471,0
5,1,1,0,0,473,0
6,1,1,0,0,475,0
7,1,1,0,0,476,0
8,1,1,0,0,477,0
9,1,1,0,0,477,0
10,1,1,0,0,476,0
11,1,1,0,0,473,0
12,1,1,0,0,471,0
13,1,1,0,0,468,0
14,1,1,0,0,465,0
15,1,1,0,0,462,0
0,1,1,0,0,461,0
1,1,1,0,0,461,0
2,1,1,0,0,461,0
3,1,1,0,0,462,0
4,1,1,0,0,464,0
5,1,1,0,0,467,0
6,1,1,0,0,472,0
7,1,1,0,0,475,0
8,1,1,0,0,479,0
9,1,1,0,0,480,0
10,1,1,0,0,481,0
11,1,1,0,0,481,0
12,1,1,0,0,482,0
13,1,1,0,0,481,0
14,1,1,0,0,480,0
15,1,1,0,0,477,0
0,1,1,0,0,474,0
1,1,1,0,0,472,0
2,1,1,0,0,469,0
3,1,1,0,0,467,0
4,1,1,0,0,466,0
5,1,1,0,0,465,0
6,1,1,0,0,466,0
7,1,1,0,0,467,0
8,1,1,0,0,468,0
9,1,1,0,0,471,0
10,1,1,0,0,475,0
11,1,1,0,0,478,0
12,1,1,0,0,480,0
13,1,1,0,0,481,0
14,1,1,0,0,483,0
15,1,1,0,0,483,0
0,1,1,0,0,484,0
1,1,1,0,0,484,0
2,1,1,0,0,482,0
3,1,1,0,0,480,0
4,1,1,0,0,477,0
5,1,1,0,0,473,0
6,1,1,0,0,471,0
7,1,1,0,0,468,0
8,1,1,0,0,467,0
9,1,1,0,0,465,0
10,1,1,0,0,465,0
11,1,1,0,0,466,0
12,1,1,0,0,468,0
13,1,1,0,0,471,0
14,1,1,0,0,474,0
15,1,1,0,0,478,0
0,1,1,0,0,479,0
1,1,1,0,0,481,0
2,1,1,0,0,482,0
3,1,1,0,0,482,0
4,1,1,0,0,482,0
5,1,1,0,0,482,0
6,1,1,0,0,480,0
7,1,1,0,0,478,0
8,1,1,0,0,475,0
9,1,1,0,0,473,0
10,1,1,0,0,471,0
11,1,1,0,0,469,0
12,1,1,0,0,467,0
13,1,1,0,0,465,0
14,1,1,0,0,463,0
15,1,1,0,0,464,0
0,1,1,0,0,465,0
1,1,1,0,0,467,0
2,1,1,0,0,470,0
3,1,1,0,0,474,0
4,1,1,0,0,477,0
5,1,1,0,0,478,0
6,1,1,0,0,479,0
7,1,1,0,0,481,0
8,1,1,0,0,481,0
9,1,1,0,0,481,0
10,1,1,0,0,479,0
11,1,1,0,0,477,0
12,1,1,0,0,473,0
13,1,1,0,0,469,0
14,1,1,0,0,466,0
15,1,1,0,0,464,0
0,1,1,0,0,462,0
1,1,1,0,0,460,0
2,1,1,0,0,458,0
3,1,1,0,0,458,0
4,1,1,0,0,459,0
5,1,1,0,0,461,0
6,1,1,0,0,465,0
7,1,1,0,0,467,0
8,1,1,0,0,470,0
9,1,1,0,0,471,0
10,1,1,0,0,471,0
11,1,1,0,0,471,0
12,1,1,0,0,472,0
13,1,1,0,0,472,0
14,1,1,0,0,469,0
15,1,1,0,0,466,0
0,1,1,0,0,463,0
1,1,1,0,0,458,0
2,1,1,0,0,454,0
3,1,1,0,0,451,0
4,1,1,0,0,450,0
5,1,1,0,0,449,0
6,1,1,0,0,450,0
7,1,1,0,0,451,0
8,1,1,0,0,453,0
9,1,1,0,0,457,0
10,1,1,0,0,461,0
11,1,1,0,0,466,0
12,1,1,0,0,470,0
13,1,1,0,0,473,0
14,1,1,0,0,475,0
15,1,1,0,0,476,0
0,1,1,0,0,477,0
1,1,1,0,0,477,0
2,1,1,0,0,476,0
3,1,1,0,0,474,0
4,1,1,0,0,472,0
5,1,1,0,0,471,0
6,1,1,0,0,468,0
7,1,1,0,0,467,0
8,1,1,0,0,466,0
9,1,1,0,0,467,0
10,1,1,0,0,468,0
11,1,1,0,0,471,0
12,1,1,0,0,475,0
13,1,1,0,0,480,0
14,1,1,0,0,485,0
15,1,1,0,0,490,0
0,1,1,0,0,495,0
1,1,1,0,0,499,0
2,1,1,0,0,503,0
3,1,1,0,0,505,0
4,1,1,0,0,508,0
5,1,1,0,0,510,0
6,1,1,0,0,510,0
7,1,1,0,0,510,0
8,1,1,0,0,510,0
9,1,1,0,0,509,0
10,1,1,0,0,508,0
11,1,1,0,0,508,0
12,1,1,0,0,509,0
13,1,1,0,0,511,0
14,1,1,0,0,512,0
15,1,1,0,0,515,0
0,1,1,0,0,520,0
1,1,1,0,0,525,0
2,1,1,0,0,531,0
3,1,1,0,0,537,0
4,1,1,0,0,542,0
5,1,1,0,0,545,0
6,1,1,0,0,548,0
7,1,1,0,0,550,0
8,1,1,0,0,552,0
9,1,1,0,0,554,0
10,1,1,0,0,554,0
11,1,1,0,0,554,0
12,1,1,0,0,552,0
13,1,1,0,0,551,0
14,1,1,0,0,551,0
15,1,1,0,0,550,0
0,1,1,0,0,551,0
1,1,1,0,0,552,0
2,1,1,0,0,553,0
3,1,1,0,0,556,0
4,1,1,0,0,559,0
5,1,1,0,0,563,0
6,1,1,0,0,568,0
7,1,1,0,0,572,0
8,1,1,0,0,575,0
9,1,1,0,0,577,0
10,1,1,0,0,579,0
11,1,1,0,0,580,0
12,1,1,0,0,582,0
13,1,1,0,0,581,0
14,1,1,0,0,580,0
15,1,1,0,0,577,0
0,1,1,0,0,575,0
1,1,1,0,0,573,0
2,1,1,0,0,571,0
3,1,1,0,0,570,0
4,1,1,0,0,569,0
5,1,1,0,0,566,0
6,1,1,0,0,564,0
7,1,1,0,0,564,0
8,1,1,0,0,565,0
9,1,1,0,0,568,0
10,1,1,0,0,571,0
11,1,1,0,0,575,0
12,1,1,0,0,578,0
13,1,1,0,0,580,0
14,1,1,0,0,582,0
15,1,1,0,0,583,0
0,1,1,0,0,584,0
1,1,1,0,0,585,0
2,1,1,0,0,583,0
3,1,1,0,0,581,0
4,1,1,0,0,577,0
5,1,1,0,0,574,0
6,1,1,0,0,571,0
7,1,1,0,0,568,0
8,1,1,0,0,566,0
9,1,1,0,0,564,0
10,1,1,0,0,564,0
11,1,1,0,0,564,0
12,1,1,0,0,565,0
13,1,1,0,0,568,0
14,1,1,0,0,571,0
15,1,1,0,0,574,0
0,1,1,0,0,576,0
1,1,1,0,0,578,0
2,1,1,0,0,579,0
3,1,1,0,0,580,0
4,1,1,0,0,581,0
5,1,1,0,0,580,0
6,1,1,0,0,579,0
7,1,1,0,0,576,0
8,1,1,0,0,572,0
9,1,1,0,0,568,0
10,1,1,0,0,564,0
11,1,1,0,0,561,0
12,1,1,0,0,561,0
13,1,1,0,0,560,0
14,1,1,0,0,560,0
15,1,1,0,0,559,0
0,1,1,0,0,560,0
1,1,1,0,0,562,0
2,1,1,0,0,566,0
3,1,1,0,0,569,0
4,1,1,0,0,572,0
5,1,1,0,0,573,0
6,1,1,0,0,575,0
7,1,1,0,0,575,0
8,1,1,0,0,576,0
9,1,1,0,0,575,0
10,1,1,0,0,572,0
11,1,1,0,0,569,0
12,1,1,0,0,567,0
13,1,1,0,0,564,0
14,1,1,0,0,562,0
15,1,1,0,0,559,0
0,1,1,0,0,558,0
1,1,1,0,0,557,0
2,1,1,0,0,556,0
3,1,1,0,0,557,0
4,1,1,0,0,559,0
5,1,1,0,0,560,0
6,1,1,0,0,563,0
7,1,1,0,0,566,0
8,1,1,0,0,569,0
9,1,1,0,0,569,0
10,1,1,0,0,571,0
11,1,1,0,0,571,0
12,1,1,0,0,571,0
13,1,1,0,0,570,0
14,1,1,0,0,569,0
15,1,1,0,0,566,0
0,1,1,0,0,564,0
1,1,1,0,0,561,0
2,1,1,0,0,560,0
3,1,1,0,0,558,0
4,1,1,0,0,557,0
5,1,1,0,0,556,0
6,1,1,0,0,556,0
7,1,1,0,0,556,0
8,1,1,0,0,557,0
9,1,1,0,0,560,0
10,1,1,0,0,564,0
11,1,1,0,0,567,0
12,1,1,0,0,569,0
13,1,1,0,0,572,0
14,1,1,0,0,573,0
15,1,1,0,0,574,0
0,1,1,0,0,574,0
1,1,1,0,0,573,0
2,1,1,0,0,571,0
3,1,1,0,0,569,0
4,1,1,0,0,565,0
5,1,1,0,0,560,0
6,1,1,0,0,558,0
7,1,1,0,0,556,0
8,1,1,0,0,555,0
9,1,1,0,0,552,0
10,1,1,0,0,551,0
11,1,1,0,0,551,0
12,1,1,0,0,552,0
13,1,1,0,0,555,0
14,1,1,0,0,558,0
15,1,1,0,0,561,0
0,1,1,0,0,563,0
1,1,1,0,0,564,0
2,1,1,0,0,565,0
3,1,1,0,0,564,0
4,1,1,0,0,565,0
5,1,1,0,0,564,0
6,1,1,0,0,562,0
7,1,1,0,0,559,0
8,1,1,0,0,556,0
9,1,1,0,0,553,0
10,1,1,0,0,550,0
11,1,1,0,0,549,0
12,1,1,0,0,548,0
13,1,1,0,0,547,0
14,1,1,0,0,545,0
15,1,1,0,0,545,0
0,1,1,0,0,546,0
1,1,1,0,0,548,0
2,1,1,0,0,552,0
3,1,1,0,0,556,0
4,1,1,0,0,558,0
5,1,1,0,0,559,0
6,1,1,0,0,560,0
7,1,1,0,0,560,0
8,1,1,0,0,560,0
9,1,1,0,0,560,0
10,1,1,0,0,559,0
11,1,1,0,0,557,0
12,1,1,0,0,555,0
13,1,1,0,0,551,0
14,1,1,0,0,550,0
15,1,1,0,0,549,0
0,1,1,0,0,550,0
1,1,1,0,0,550,0
2,1,1,0,0,550,0
3,1,1,0,0,550,0
4,1,1,0,0,552,0
5,1,1,0,0,556,0
6,1,1,0,0,560,0
7,1,1,0,0,565,0
8,1,1,0,0,569,0
9,1,1,0,0,572,0
10,1,1,0,0,575,0
11,1,1,0,0,576,0
12,1,1,0,0,578,0
13,1,1,0,0,578,0
14,1,1,0,0,578,0
15,1,1,0,0,578,0
0,1,1,0,0,577,0
1,1,1,0,0,574,0
2,1,1,0,0,571,0
3,1,1,0,0,569,0
4,1,1,0,0,569,0
5,1,1,0,0,569,0
6,1,1,0,0,570,0
7,1,1,0,0,572,0
8,1,1,0,0,574,0
9,1,1,0,0,576,0
10,1,1,0,0,579,0
11,1,1,0,0,580,0
12,1,1,0,0,581,0
13,1,1,0,0,580,0
14,1,1,0,0,579,0
15,1,1,0,0,576,0
0,1,1,0,0,574,0
1,1,1,0,0,569,0
2,1,1,0,0,563,0
3,1,1,0,0,558,0
4,1,1,0,0,552,0
5,1,1,0,0,546,0
6,1,1,0,0,540,0
7,1,1,0,0,536,0
8,1,1,0,0,532,0
9,1,1,0,0,529,0
10,1,1,0,0,527,0
11,1,1,0,0,527,0
12,1,1,0,0,527,0
13,1,1,0,0,528,0
14,1,1,0,0,530,0
15,1,1,0,0,531,0
0,1,1,0,0,532,0
1,1,1,0,0,532,0
2,1,1,0,0,531,0
3,1,1,0,0,532,0
4,1,1,0,0,532,0
5,1,1,0,0,531,0
6,1,1,0,0,528,0
7,1,1,0,0,526,0
8,1,1,0,0,523,0
9,1,1,0,0,520,0
10,1,1,0,0,518,0
11,1,1,0,0,516,0
12,1,1,0,0,513,0
13,1,1,0,0,512,0
14,1,1,0,0,511,0
15,1,1,0,0,510,0
0,1,1,0,0,512,0
1,1,1,0,0,514,0
2,1,1,0,0,517,0
3,1,1,0,0,520,0
4,1,1,0,0,523,0
5,1,1,0,0,524,0
6,1,1,0,0,525,0
7,1,1,0,0,525,0
8,1,1,0,0,525,0
9,1,1,0,0,524,0
10,1,1,0,0,522,0
11,1,1,0,0,519,0
12,1,1,0,0,515,0
13,1,1,0,0,512,0
14,1,1,0,0,509,0
15,1,1,0,0,508,0
0,1,1,0,0,507,0
1,1,1,0,0,506,0
2,1,1,0,0,507,0
3,1,1,0,0,508,0
4,1,1,0,0,510,0
5,1,1,0,0,513,0
6,1,1,0,0,518,0
7,1,1,0,0,523,0
8,1,1,0,0,527,0
9,1,1,0,0,529,0
10,1,1,0,0,531,0
11,1,1,0,0,531,0
12,1,1,0,0,532,0
13,1,1,0,0,531,0
14,1,1,0,0,531,0
15,1,1,0,0,528,0
0,1,1,0,0,525,0
1,1,1,0,0,523,0
2,1,1,0,0,519,0
3,1,1,0,0,517,0
4,1,1,0,0,516,0
5,1,1,0,0,513,0
6,1,1,0,0,512,0
7,1,1,0,0,512,0
8,1,1,0,0,513,0
9,1,1,0,0,515,0
10,1,1,0,0,519,0
11,1,1,0,0,521,0
12,1,1,0,0,523,0
13,1,1,0,0,523,0
14,1,1,0,0,524,0
15,1,1,0,0,523,0
0,1,1,0,0,524,0
1,1,1,0,0,523,0
2,1,1,0,0,521,0
3,1,1,0,0,518,0
4,1,1,0,0,513,0
5,1,1,0,0,509,0
6,1,1,0,0,506,0
7,1,1,0,0,504,0
8,1,1,0,0,501,0
9,1,1,0,0,498,0
10,1,1,0,0,496,0
11,1,1,0,0,496,0
12,1,1,0,0,497,0
13,1,1,0,0,499,0
14,1,1,0,0,502,0
15,1,1,0,0,505,0
0,1,1,0,0,507,0
1,1,1,0,0,508,0
2,1,1,0,0,510,0
3,1,1,0,0,510,0
4,1,1,0,0,511,0
5,1,1,0,0,511,0
6,1,1,0,0,510,0
7,1,1,0,0,508,0
8,1,1,0,0,506,0
9,1,1,0,0,504,0
10,1,1,0,0,502,0
11,1,1,0,0,501,0
12,1,1,0,0,502,0
13,1,1,0,0,501,0
14,1,1,0,0,502,0
15,1,1,0,0,502,0
0,1,1,0,0,504,0
1,1,1,0,0,506,0
2,1,1,0,0,508,0
3,1,1,0,0,511,0
4,1,1,0,0,513,0
5,1,1,0,0,514,0
6,1,1,0,0,516,0
7,1,1,0,0,519,0
8,1,1,0,0,520,0
9,1,1,0,0,520,0
10,1,1,0,0,518,0
11,1,1,0,0,515,0
12,1,1,0,0,513,0
13,1,1,0,0,511,0
14,1,1,0,0,509,0
15,1,1,0,0,507,0
0,1,1,0,0,507,0
1,1,1,0,0,507,0
2,1,1,0,0,507,0
3,1,1,0,0,508,0
4,1,1,0,0,511,0
5,1,1,0,0,513,0
6,1,1,0,0,517,0
7,1,1,0,0,520,0
8,1,1,0,0,523,0
9,1,1,0,0,525,0
10,1,1,0,0,526,0
11,1,1,0,0,526,0
12,1,1,0,0,527,0
13,1,1,0,0,527,0
14,1,1,0,0,526,0
15,1,1,0,0,524,0
0,1,1,0,0,521,0
1,1,1,0,0,517,0
2,1,1,0,0,514,0
3,1,1,0,0,512,0
4,1,1,0,0,511,0
5,1,1,0,0,511,0
6,1,1,0,0,511,0
7,1,1,0,0,512,0
8,1,1,0,0,513,0
9,1,1,0,0,515,0
10,1,1,0,0,517,0
11,1,1,0,0,519,0
12,1,1,0,0,521,0
13,1,1,0,0,522,0
14,1,1,0,0,524,0
15,1,1,0,0,524,0
0,1,1,0,0,525,0
1,1,1,0,0,524,0
2,1,1,0,0,523,0
3,1,1,0,0,521,0
4,1,1,0,0,518,0
5,1,1,0,0,515,0
6,1,1,0,0,512,0
7,1,1,0,0,510,0
8,1,1,0,0,508,0
9,1,1,0,0,505,0
10,1,1,0,0,504,0
11,1,1,0,0,504,0
12,1,1,0,0,504,0
13,1,1,0,0,506,0
14,1,1,0,0,509,0
15,1,1,0,0,511,0
0,1,1,0,0,513,0
1,1,1,0,0,515,0
2,1,1,0,0,514,0
3,1,1,0,0,514,0
4,1,1,0,0,514,0
5,1,1,0,0,514,0
6,1,1,0,0,513,0
7,1,1,0,0,512,0
8,1,1,0,0,511,0
9,1,1,0,0,509,0
10,1,1,0,0,507,0
11,1,1,0,0,507,0
12,1,1,0,0,506,0
13,1,1,0,0,504,0
14,1,1,0,0,503,0
15,1,1,0,0,503,0
0,1,1,0,0,504,0
1,1,1,0,0,506,0
2,1,1,0,0,510,0
3,1,1,0,0,513,0
4,1,1,0,0,515,0
5,1,1,0,0,516,0
6,1,1,0,0,517,0
7,1,1,0,0,517,0
8,1,1,0,0,517,0
9,1,1,0,0,516,0
10,1,1,0,0,515,0
11,1,1,0,0,513,0
12,1,1,0,0,511,0
13,1,1,0,0,508,0
14,1,1,0,0,506,0
15,1,1,0,0,504,0
0,1,1,0,0,504,0
1,1,1,0,0,502,0
2,1,1,0,0,500,0
3,1,1,0,0,501,0
4,1,1,0,0,502,0
5,1,1,0,0,504,0
6,1,1,0,0,508,0
7,1,1,0,0,511,0
8,1,1,0,0,513,0
9,1,1,0,0,514,0
10,1,1,0,0,514,0
11,1,1,0,0,515,0
12,1,1,0,0,516,0
13,1,1,0,0,516,0
14,1,1,0,0,516,0
15,1,1,0,0,515,0
0,1,1,0,0,514,0
1,1,1,0,0,511,0
2,1,1,0,0,509,0
3,1,1,0,0,508,0
4,1,1,0,0,508,0
5,1,1,0,0,508,0
6,1,1,0,0,508,0
7,1,1,0,0,508,0
8,1,1,0,0,509,0
9,1,1,0,0,511,0
10,1,1,0,0,514,0
11,1,1,0,0,516,0
12,1,1,0,0,517,0
13,1,1,0,0,517,0
14,1,1,0,0,517,0
15,1,1,0,0,516,0
0,1,1,0,0,516,0
1,1,1,0,0,515,0
2,1,1,0,0,514,0
3,1,1,0,0,512,0
4,1,1,0,0,510,0
5,1,1,0,0,509,0
6,1,1,0,0,506,0
7,1,1,0,0,504,0
8,1,1,0,0,503,0
9,1,1,0,0,504,0
10,1,1,0,0,504,0
11,1,1,0,0,505,0
12,1,1,0,0,508,0
13,1,1,0,0,511,0
14,1,1,0,0,515,0
15,1,1,0,0,520,0
0,1,1,0,0,524,0
1,1,1,0,0,526,0
2,1,1,0,0,527,0
3,1,1,0,0,527,0
4,1,1,0,0,528,0
5,1,1,0,0,528,0
6,1,1,0,0,526,0
7,1,1,0,0,523,0
8,1,1,0,0,519,0
9,1,1,0,0,515,0
10,1,1,0,0,511,0
11,1,1,0,0,508,0
12,1,1,0,0,505,0
13,1,1,0,0,503,0
14,1,1,0,0,502,0
15,1,1,0,0,502,0
0,1,1,0,0,503,0
1,1,1,0,0,504,0
2,1,1,0,0,507,0
3,1,1,0,0,510,0
4,1,1,0,0,512,0
5,1,1,0,0,514,0
6,1,1,0,0,516,0
7,1,1,0,0,518,0
8,1,1,0,0,519,0
9,1,1,0,0,520,0
10,1,1,0,0,519,0
11,1,1,0,0,518,0
12,1,1,0,0,516,0
13,1,1,0,0,515,0
14,1,1,0,0,513,0
15,1,1,0,0,513,0
0,1,1,0,0,512,0
1,1,1,0,0,512,0
2,1,1,0,0,512,0
3,1,1,0,0,512,0
4,1,1,0,0,514,0
5,1,1,0,0,518,0
6,1,1,0,0,522,0
7,1,1,0,0,526,0
8,1,1,0,0,527,0
9,1,1,0,0,530,0
10,1,1,0,0,531,0
11,1,1,0,0,531,0
12,1,1,0,0,531,0
13,1,1,0,0,530,0
14,1,1,0,0,529,0
15,1,1,0,0,526,0
0,1,1,0,0,524,0
1,1,1,0,0,521,0
2,1,1,0,0,518,0
3,1,1,0,0,515,0
4,1,1,0,0,515,0
5,1,1,0,0,514,0
6,1,1,0,0,513,0
7,1,1,0,0,514,0
8,1,1,0,0,515,0
9,1,1,0,0,517,0
10,1,1,0,0,519,0
11,1,1,0,0,524,0
12,1,1,0,0,527,0
13,1,1,0,0,529,0
14,1,1,0,0,531,0
15,1,1,0,0,533,0
0,1,1,0,0,534,0
1,1,1,0,0,535,0
2,1,1,0,0,535,0
3,1,1,0,0,535,0
4,1,1,0,0,534,0
5,1,1,0,0,533,0
6,1,1,0,0,532,0
7,1,1,0,0,531,0
8,1,1,0,0,529,0
9,1,1,0,0,527,0
10,1,1,0,0,526,0
11,1,1,0,0,524,0
12,1,1,0,0,523,0
13,1,1,0,0,524,0
14,1,1,0,0,526,0
15,1,1,0,0,526,0
0,1,1,0,0,527,0
1,1,1,0,0,528,0
2,1,1,0,0,528,0
3,1,1,0,0,528,0
4,1,1,0,0,528,0
5,1,1,0,0,528,0
6,1,1,0,0,528,0
7,1,1,0,0,527,0
8,1,1,0,0,526,0
9,1,1,0,0,523,0
10,1,1,0,0,521,0
11,1,1,0,0,520,0
12,1,1,0,0,520,0
13,1,1,0,0,520,0
14,1,1,0,0,520,0
15,1,1,0,0,521,0
0,1,1,0,0,522,0
1,1,1,0,0,524,0
2,1,1,0,0,527,0
3,1,1,0,0,530,0
4,1,1,0,0,534,0
5,1,1,0,0,536,0
6,1,1,0,0,536,0
7,1,1,0,0,535,0
8,1,1,0,0,535,0
9,1,1,0,0,533,0
10,1,1,0,0,529,0
11,1,1,0,0,526,0
12,1,1,0,0,523,0
13,1,1,0,0,520,0
14,1,1,0,0,518,0
15,1,1,0,0,515,0
0,1,1,0,0,512,0
1,1,1,0,0,512,0
2,1,1,0,0,512,0
3,1,1,0,0,513,0
4,1,1,0,0,513,0
5,1,1,0,0,514,0
6,1,1,0,0,517,0
7,1,1,0,0,521,0
8,1,1,0,0,524,0
9,1,1,0,0,525,0
10,1,1,0,0,526,0
11,1,1,0,0,526,0
12,1,1,0,0,526,0
13,1,1,0,0,525,0
14,1,1,0,0,524,0
15,1,1,0,0,523,0
0,1,1,0,0,521,0
1,1,1,0,0,518,0
2,1,1,0,0,513,0
3,1,1,0,0,511,0
4,1,1,0,0,508,0
5,1,1,0,0,506,0
6,1,1,0,0,505,0
7,1,1,0,0,505,0
8,1,1,0,0,506,0
9,1,1,0,0,509,0
10,1,1,0,0,512,0
11,1,1,0,0,515,0
12,1,1,0,0,517,0
13,1,1,0,0,518,0
14,1,1,0,0,519,0
15,1,1,0,0,519,0
0,1,1,0,0,520,0
1,1,1,0,0,520,0
2,1,1,0,0,519,0
3,1,1,0,0,517,0
4,1,1,0,0,513,0
5,1,1,0,0,510,0
6,1,1,0,0,507,0
7,1,1,0,0,505,0
8,1,1,0,0,504,0
9,1,1,0,0,502,0
10,1,1,0,0,502,0
11,1,1,0,0,503,0
12,1,1,0,0,504,0
13,1,1,0,0,507,0
14,1,1,0,0,511,0
15,1,1,0,0,514,0
0,1,1,0,0,518,0
1,1,1,0,0,519,0
2,1,1,0,0,521,0
3,1,1,0,0,522,0
4,1,1,0,0,523,0
5,1,1,0,0,523,0
6,1,1,0,0,522,0
7,1,1,0,0,520,0
8,1,1,0,0,518,0
9,1,1,0,0,515,0
10,1,1,0,0,512,0
11,1,1,0,0,510,0
12,1,1,0,0,508,0
13,1,1,0,0,507,0
14,1,1,0,0,505,0
15,1,1,0,0,506,0
0,1,1,0,0,508,0
1,1,1,0,0,511,0
2,1,1,0,0,515,0
3,1,1,0,0,519,0
4,1,1,0,0,521,0
5,1,1,0,0,524,0
6,1,1,0,0,524,0
7,1,1,0,0,526,0
8,1,1,0,0,527,0
9,1,1,0,0,528,0
10,1,1,0,0,526,0
11,1,1,0,0,524,0
12,1,1,0,0,521,0
13,1,1,0,0,518,0
14,1,1,0,0,516,0
15,1,1,0,0,513,0
0,1,1,0,0,511,0
1,1,1,0,0,509,0
2,1,1,0,0,507,0
3,1,1,0,0,506,0
4,1,1,0,0,506,0
5,1,1,0,0,507,0
6,1,1,0,0,510,0
7,1,1,0,0,513,0
8,1,1,0,0,516,0
9,1,1,0,0,520,0
10,1,1,0,0,523,0
11,1,1,0,0,526,0
12,1,1,0,0,527,0
13,1,1,0,0,528,0
14,1,1,0,0,528,0
15,1,1,0,0,527,0
0,1,1,0,0,527,0
1,1,1,0,0,526,0
2,1,1,0,0,523,0
3,1,1,0,0,522,0
4,1,1,0,0,521,0
5,1,1,0,0,520,0
6,1,1,0,0,519,0
7,1,1,0,0,519,0
8,1,1,0,0,519,0
9,1,1,0,0,520,0
10,1,1,0,0,523,0
11,1,1,0,0,525,0
12,1,1,0,0,526,0
13,1,1,0,0,527,0
14,1,1,0,0,527,0
15,1,1,0,0,528,0
0,1,1,0,0,528,0
1,1,1,0,0,528,0
2,1,1,0,0,528,0
3,1,1,0,0,527,0
4,1,1,0,0,525,0
5,1,1,0,0,524,0
6,1,1,0,0,522,0
7,1,1,0,0,519,0
8,1,1,0,0,519,0
9,1,1,0,0,519,0
10,1,1,0,0,519,0
11,1,1,0,0,520,0
12,1,1,0,0,521,0
13,1,1,0,0,524,0
14,1,1,0,0,527,0
15,1,1,0,0,529,0
0,1,1,0,0,532,0
1,1,1,0,0,534,0
2,1,1,0,0,534,0
3,1,1,0,0,535,0
4,1,1,0,0,535,0
5,1,1,0,0,534,0
6,1,1,0,0,534,0
7,1,1,0,0,532,0
8,1,1,0,0,530,0
9,1,1,0,0,527,0
10,1,1,0,0,523,0
11,1,1,0,0,519,0
12,1,1,0,0,515,0
13,1,1,0,0,513,0
14,1,1,0,0,512,0
15,1,1,0,0,512,0
0,1,1,0,0,513,0
1,1,1,0,0,515,0
2,1,1,0,0,519,0
3,1,1,0,0,523,0
4,1,1,0,0,525,0
5,1,1,0,0,527,0
6,1,1,0,0,529,0
7,1,1,0,0,531,0
8,1,1,0,0,532,0
9,1,1,0,0,535,0
10,1,1,0,0,536,0
11,1,1,0,0,537,0
12,1,1,0,0,537,0
13,1,1,0,0,536,0
14,1,1,0,0,535,0
15,1,1,0,0,534,0
0,1,1,0,0,533,0
1,1,1,0,0,532,0
2,1,1,0,0,531,0
3,1,1,0,0,530,0
4,1,1,0,0,530,0
5,1,1,0,0,531,0
6,1,1,0,0,534,0
7,1,1,0,0,537,0
8,1,1,0,0,539,0
9,1,1,0,0,541,0
10,1,1,0,0,542,0
11,1,1,0,0,543,0
12,1,1,0,0,543,0
13,1,1,0,0,544,0
14,1,1,0,0,544,0
15,1,1,0,0,541,0
0,1,1,0,0,538,0
1,1,1,0,0,535,0
2,1,1,0,0,531,0
3,1,1,0,0,528,0
4,1,1,0,0,527,0
5,1,1,0,0,525,0
6,1,1,0,0,523,0
7,1,1,0,0,524,0
8,1,1,0,0,526,0
9,1,1,0,0,528,0
10,1,1,0,0,531,0
11,1,1,0,0,534,0
12,1,1,0,0,536,0
13,1,1,0,0,540,0
14,1,1,0,0,543,0
15,1,1,0,0,545,0
0,1,1,0,0,548,0
1,1,1,0,0,551,0
2,1,1,0,0,552,0
3,1,1,0,0,553,0
4,1,1,0,0,552,0
5,1,1,0,0,551,0
6,1,1,0,0,548,0
7,1,1,0,0,544,0
8,1,1,0,0,541,0
9,1,1,0,0,535,0
10,1,1,0,0,529,0
11,1,1,0,0,523,0
12,1,1,0,0,519,0
13,1,1,0,0,517,0
14,1,1,0,0,516,0
15,1,1,0,0,516,0
0,1,1,0,0,518,0
1,1,1,0,0,521,0
2,1,1,0,0,523,0
3,1,1,0,0,526,0
4,1,1,0,0,530,0
5,1,1,0,0,533,0
6,1,1,0,0,536,0
7,1,1,0,0,537,0
8,1,1,0,0,537,0
9,1,1,0,0,536,0
10,1,1,0,0,534,0
11,1,1,0,0,534,0
12,1,1,0,0,534,0
13,1,1,0,0,533,0
14,1,1,0,0,531,0
15,1,1,0,0,531,0
0,1,1,0,0,532,0
1,1,1,0,0,532,0
2,1,1,0,0,535,0
3,1,1,0,0,537,0
4,1,1,0,0,538,0
5,1,1,0,0,539,0
6,1,1,0,0,540,0
7,1,1,0,0,540,0
8,1,1,0,0,540,0
9,1,1,0,0,540,0
10,1,1,0,0,539,0
11,1,1,0,0,538,0
12,1,1,0,0,536,0
13,1,1,0,0,534,0
14,1,1,0,0,533,0
15,1,1,0,0,530,0
0,1,1,0,0,528,0
1,1,1,0,0,527,0
2,1,1,0,0,526,0
3,1,1,0,0,526,0
4,1,1,0,0,526,0
5,1,1,0,0,527,0
6,1,1,0,0,530,0
7,1,1,0,0,531,0
8,1,1,0,0,532,0
9,1,1,0,0,532,0
10,1,1,0,0,532,0
11,1,1,0,0,532,0
12,1,1,0,0,533,0
13,1,1,0,0,533,0
14,1,1,0,0,533,0
15,1,1,0,0,530,0
0,1,1,0,0,527,0
1,1,1,0,0,524,0
2,1,1,0,0,522,0
3,1,1,0,0,520,0
4,1,1,0,0,518,0
5,1,1,0,0,518,0
6,1,1,0,0,518,0
7,1,1,0,0,518,0
8,1,1,0,0,519,0
9,1,1,0,0,521,0
10,1,1,0,0,523,0
11,1,1,0,0,526,0
12,1,1,0,0,527,0
13,1,1,0,0,529,0
14,1,1,0,0,530,0
15,1,1,0,0,529,0
0,1,1,0,0,531,0
1,1,1,0,0,530,0
2,1,1,0,0,529,0
3,1,1,0,0,526,0
4,1,1,0,0,524,0
5,1,1,0,0,522,0
6,1,1,0,0,519,0
7,1,1,0,0,517,0
8,1,1,0,0,516,0
9,1,1,0,0,516,0
10,1,1,0,0,517,0
11,1,1,0,0,518,0
12,1,1,0,0,519,0
13,1,1,0,0,521,0
14,1,1,0,0,523,0
15,1,1,0,0,524,0
0,1,1,0,0,526,0
1,1,1,0,0,527,0
2,1,1,0,0,528,0
3,1,1,0,0,528,0
4,1,1,0,0,528,0
5,1,1,0,0,528,0
6,1,1,0,0,527,0
7,1,1,0,0,525,0
8,1,1,0,0,523,0
9,1,1,0,0,521,0
10,1,1,0,0,519,0
11,1,1,0,0,518,0
12,1,1,0,0,516,0
13,1,1,0,0,515,0
14,1,1,0,0,511,0
15,1,1,0,0,509,0
0,1,1,0,0,506,0
1,1,1,0,0,503,0
2,1,1,0,0,499,0
3,1,1,0,0,494,0
4,1,1,0,0,487,0
5,1,1,0,0,481,0
6,1,1,0,0,474,0
7,1,1,0,0,467,0
8,1,1,0,0,460,0
9,1,1,0,0,455,0
10,1,1,0,0,449,0
11,1,1,0,0,444,0
12,1,1,0,0,441,0
13,1,1,0,0,438,0
14,1,1,0,0,435,0
15,1,1,0,0,431,0
0,1,1,0,0,427,0
1,1,1,0,0,423,0
2,1,1,0,0,420,0
3,1,1,0,0,419,0
4,1,1,0,0,420,0
5,1,1,0,0,423,0
6,1,1,0,0,431,0
7,1,1,0,0,441,0
8,1,1,0,0,456,0
9,1,1,0,0,473,0
10,1,1,0,0,488,0
11,1,1,0,0,504,0
12,1,1,0,0,519,0
13,1,1,0,0,533,0
14,1,1,0,0,548,0
15,1,1,0,0,562,0
0,1,1,0,0,579,0
1,1,1,0,0,600,0
2,1,1,0,0,624,0
3,1,1,0,0,650,0
4,1,1,0,0,677,0
5,1,1,0,0,708,0
6,1,1,0,0,739,0
7,1,1,0,0,766,0
8,1,1,0,0,790,0
9,1,1,0,0,806,0
10,1,1,0,0,816,0
11,1,1,0,0,821,0
12,1,1,0,0,820,0
13,1,1,0,0,819,0
14,1,1,0,0,821,0
15,1,1,0,0,826,0
0,1,1,0,0,827,0
1,1,1,0,0,824,0
2,1,1,0,0,816,0
3,1,1,0,0,806,0
4,1,1,0,0,794,0
5,1,1,0,0,779,0
6,1,1,0,0,763,0
7,1,1,0,0,745,0
8,1,1,0,0,727,0
9,1,1,0,0,707,0
10,1,1,0,0,686,0
11,1,1,0,0,664,0
12,1,1,0,0,641,0
13,1,1,0,0,619,0
14,1,1,0,0,600,0
15,1,1,0,0,584,0
0,1,1,0,0,571,0
1,1,1,0,0,558,0
2,1,1,0,0,547,0
3,1,1,0,0,536,0
4,1,1,0,0,526,0
5,1,1,0,0,516,0
6,1,1,0,0,509,0
7,1,1,0,0,501,0
8,1,1,0,0,494,0
9,1,1,0,0,489,0
10,1,1,0,0,484,0
11,1,1,0,0,480,0
12,1,1,0,0,478,0
13,1,1,0,0,476,0
14,1,1,0,0,475,0
15,1,1,0,0,475,0
0,1,1,0,0,474,0
1,1,1,0,0,473,0
2,1,1,0,0,473,0
3,1,1,0,0,473,0
4,1,1,0,0,473,0
5,1,1,0,0,474,0
6,1,1,0,0,474,0
7,1,1,0,0,473,0
8,1,1,0,0,474,0
9,1,1,0,0,473,0
10,1,1,0,0,473,0
11,1,1,0,0,472,0
12,1,1,0,0,470,0
13,1,1,0,0,468,0
14,1,1,0,0,466,0
15,1,1,0,0,463,0
0,1,1,0,0,461,0
1,1,1,0,0,459,0
2,1,1,0,0,457,0
3,1,1,0,0,457,0
4,1,1,0,0,459,0
5,1,1,0,0,461,0
6,1,1,0,0,464,0
7,1,1,0,0,468,0
8,1,1,0,0,474,0
9,1,1,0,0,479,0
10,1,1,0,0,483,0
11,1,1,0,0,485,0
12,1,1,0,0,487,0
13,1,1,0,0,490,0
14,1,1,0,0,489,0
15,1,1,0,0,488,0
0,1,1,0,0,487,0
1,1,1,0,0,485,0
2,1,1,0,0,482,0
3,1,1,0,0,480,0
4,1,1,0,0,478,0
5,1,1,0,0,476,0
6,1,1,0,0,474,0
7,1,1,0,0,472,0
8,1,1,0,0,471,0
9,1,1,0,0,471,0
10,1,1,0,0,472,0
11,1,1,0,0,475,0
12,1,1,0,0,476,0
13,1,1,0,0,478,0
14,1,1,0,0,480,0
15,1,1,0,0,482,0
0,1,1,0,0,483,0
1,1,1,0,0,485,0
2,1,1,0,0,485,0
3,1,1,0,0,482,0
4,1,1,0,0,478,0
5,1,1,0,0,475,0
6,1,1,0,0,470,0
7,1,1,0,0,465,0
8,1,1,0,0,460,0
9,1,1,0,0,456,0
10,1,1,0,0,453,0
11,1,1,0,0,449,0
12,1,1,0,0,446,0
13,1,1,0,0,445,0
14,1,1,0,0,446,0
15,1,1,0,0,447,0
0,1,1,0,0,448,0
1,1,1,0,0,448,0
2,1,1,0,0,449,0
3,1,1,0,0,450,0
4,1,1,0,0,450,0
5,1,1,0,0,451,0
6,1,1,0,0,452,0
7,1,1,0,0,452,0
8,1,1,0,0,451,0
9,1,1,0,0,449,0
10,1,1,0,0,447,0
11,1,1,0,0,445,0
12,1,1,0,0,444,0
13,1,1,0,0,444,0
14,1,1,0,0,444,0
15,1,1,0,0,444,0
0,1,1,0,0,445,0
1,1,1,0,0,447,0
2,1,1,0,0,450,0
3,1,1,0,0,454,0
4,1,1,0,0,457,0
5,1,1,0,0,461,0
6,1,1,0,0,465,0
7,1,1,0,0,467,0
8,1,1,0,0,471,0
9,1,1,0,0,474,0
10,1,1,0,0,476,0
11,1,1,0,0,477,0
12,1,1,0,0,478,0
13,1,1,0,0,478,0
14,1,1,0,0,478,0
15,1,1,0,0,476,0
0,1,1,0,0,475,0
1,1,1,0,0,473,0
2,1,1,0,0,472,0
3,1,1,0,0,471,0
4,1,1,0,0,471,0
5,1,1,0,0,471,0
6,1,1,0,0,472,0
7,1,1,0,0,473,0
8,1,1,0,0,474,0
9,1,1,0,0,476,0
10,1,1,0,0,477,0
11,1,1,0,0,478,0
12,1,1,0,0,479,0
13,1,1,0,0,480,0
14,1,1,0,0,480,0
15,1,1,0,0,479,0
0,1,1,0,0,479,0
1,1,1,0,0,478,0
2,1,1,0,0,476,0
3,1,1,0,0,475,0
4,1,1,0,0,475,0
5,1,1,0,0,475,0
6,1,1,0,0,475,0
7,1,1,0,0,476,0
8,1,1,0,0,478,0
9,1,1,0,0,480,0
10,1,1,0,0,482,0
11,1,1,0,0,486,0
12,1,1,0,0,487,0
13,1,1,0,0,488,0
14,1,1,0,0,488,0
15,1,1,0,0,488,0
0,1,1,0,0,487,0
1,1,1,0,0,485,0
2,1,1,0,0,483,0
3,1,1,0,0,479,0
4,1,1,0,0,475,0
5,1,1,0,0,472,0
6,1,1,0,0,469,0
7,1,1,0,0,468,0
8,1,1,0,0,467,0
9,1,1,0,0,465,0
10,1,1,0,0,465,0
11,1,1,0,0,463,0
12,1,1,0,0,462,0
13,1,1,0,0,462,0
14,1,1,0,0,463,0
15,1,1,0,0,464,0
0,1,1,0,0,465,0
1,1,1,0,0,467,0
2,1,1,0,0,468,0
3,1,1,0,0,467,0
4,1,1,0,0,465,0
5,1,1,0,0,463,0
6,1,1,0,0,461,0
7,1,1,0,0,457,0
8,1,1,0,0,455,0
9,1,1,0,0,455,0
10,1,1,0,0,456,0
11,1,1,0,0,457,0
12,1,1,0,0,460,0
13,1,1,0,0,463,0
14,1,1,0,0,464,0
15,1,1,0,0,467,0
0,1,1,0,0,469,0
1,1,1,0,0,471,0
2,1,1,0,0,474,0
3,1,1,0,0,477,0
4,1,1,0,0,479,0
5,1,1,0,0,480,0
6,1,1,0,0,481,0
7,1,1,0,0,481,0
8,1,1,0,0,481,0
9,1,1,0,0,480,0
10,1,1,0,0,479,0
11,1,1,0,0,476,0
12,1,1,0,0,475,0
13,1,1,0,0,472,0
14,1,1,0,0,470,0
15,1,1,0,0,467,0
0,1,1,0,0,465,0
1,1,1,0,0,464,0
2,1,1,0,0,462,0
3,1,1,0,0,460,0
4,1,1,0,0,459,0
5,1,1,0,0,457,0
6,1,1,0,0,459,0
7,1,1,0,0,459,0
8,1,1,0,0,459,0
9,1,1,0,0,458,0
10,1,1,0,0,458,0
11,1,1,0,0,457,0
12,1,1,0,0,457,0
13,1,1,0,0,458,0
14,1,1,0,0,457,0
15,1,1,0,0,456,0
0,1,1,0,0,456,0
1,1,1,0,0,455,0
2,1,1,0,0,455,0
3,1,1,0,0,454,0
4,1,1,0,0,455,0
5,1,1,0,0,454,0
6,1,1,0,0,453,0
7,1,1,0,0,452,0
8,1,1,0,0,454,0
9,1,1,0,0,454,0
10,1,1,0,0,455,0
11,1,1,0,0,456,0
12,1,1,0,0,457,0
13,1,1,0,0,459,0
14,1,1,0,0,460,0
15,1,1,0,0,461,0
0,1,1,0,0,463,0
1,1,1,0,0,466,0
2,1,1,0,0,467,0
3,1,1,0,0,470,0
4,1,1,0,0,473,0
5,1,1,0,0,475,0
6,1,1,0,0,478,0
7,1,1,0,0,480,0
8,1,1,0,0,482,0
9,1,1,0,0,485,0
10,1,1,0,0,487,0
11,1,1,0,0,490,0
12,1,1,0,0,494,0
13,1,1,0,0,499,0
14,1,1,0,0,503,0
15,1,1,0,0,508,0
0,1,1,0,0,511,0
1,1,1,0,0,515,0
2,1,1,0,0,519,0
3,1,1,0,0,522,0
4,1,1,0,0,524,0
5,1,1,0,0,527,0
6,1,1,0,0,530,0
7,1,1,0,0,531,0
8,1,1,0,0,534,0
9,1,1,0,0,536,0
10,1,1,0,0,537,0
11,1,1,0,0,539,0
12,1,1,0,0,541,0
13,1,1,0,0,541,0
14,1,1,0,0,543,0
15,1,1,0,0,544,0
0,1,1,0,0,547,0
1,1,1,0,0,550,0
2,1,1,0,0,553,0
3,1,1,0,0,557,0
4,1,1,0,0,561,0
5,1,1,0,0,566,0
6,1,1,0,0,568,0
7,1,1,0,0,570,0
8,1,1,0,0,573,0
9,1,1,0,0,574,0
10,1,1,0,0,575,0
11,1,1,0,0,575,0
12,1,1,0,0,575,0
13,1,1,0,0,576,0
14,1,1,0,0,575,0
15,1,1,0,0,573,0
0,1,1,0,0,574,0
1,1,1,0,0,574,0
2,1,1,0,0,572,0
3,1,1,0,0,572,0
4,1,1,0,0,573,0
5,1,1,0,0,573,0
6,1,1,0,0,574,0
7,1,1,0,0,577,0
8,1,1,0,0,578,0
9,1,1,0,0,579,0
10,1,1,0,0,581,0
11,1,1,0,0,581,0
12,1,1,0,0,583,0
13,1,1,0,0,584,0
14,1,1,0,0,587,0
15,1,1,0,0,589,0
0,1,1,0,0,589,0
1,1,1,0,0,589,0
2,1,1,0,0,590,0
3,1,1,0,0,590,0
4,1,1,0,0,591,0
5,1,1,0,0,591,0
6,1,1,0,0,591,0
7,1,1,0,0,591,0
8,1,1,0,0,590,0
9,1,1,0,0,590,0
10,1,1,0,0,590,0
11,1,1,0,0,589,0
12,1,1,0,0,588,0
13,1,1,0,0,587,0
14,1,1,0,0,586,0
15,1,1,0,0,583,0
0,1,1,0,0,577,0
1,1,1,0,0,574,0
2,1,1,0,0,569,0
3,1,1,0,0,564,0
4,1,1,0,0,560,0
5,1,1,0,0,555,0
6,1,1,0,0,551,0
7,1,1,0,0,550,0
8,1,1,0,0,550,0
9,1,1,0,0,551,0
10,1,1,0,0,551,0
11,1,1,0,0,554,0
12,1,1,0,0,558,0
13,1,1,0,0,561,0
14,1,1,0,0,565,0
15,1,1,0,0,568,0
0,1,1,0,0,572,0
1,1,1,0,0,574,0
2,1,1,0,0,574,0
3,1,1,0,0,574,0
4,1,1,0,0,574,0
5,1,1,0,0,574,0
6,1,1,0,0,571,0
7,1,1,0,0,567,0
8,1,1,0,0,561,0
9,1,1,0,0,557,0
10,1,1,0,0,553,0
11,1,1,0,0,548,0
12,1,1,0,0,545,0
13,1,1,0,0,545,0
14,1,1,0,0,544,0
15,1,1,0,0,544,0
0,1,1,0,0,545,0
1,1,1,0,0,547,0
2,1,1,0,0,548,0
3,1,1,0,0,550,0
4,1,1,0,0,553,0
5,1,1,0,0,556,0
6,1,1,0,0,557,0
7,1,1,0,0,559,0
8,1,1,0,0,559,0
9,1,1,0,0,560,0
10,1,1,0,0,561,0
11,1,1,0,0,560,0
12,1,1,0,0,560,0
13,1,1,0,0,559,0
14,1,1,0,0,558,0
15,1,1,0,0,557,0
0,1,1,0,0,556,0
1,1,1,0,0,556,0
2,1,1,0,0,556,0
3,1,1,0,0,556,0
4,1,1,0,0,556,0
5,1,1,0,0,557,0
6,1,1,0,0,559,0
7,1,1,0,0,561,0
8,1,1,0,0,562,0
9,1,1,0,0,563,0
10,1,1,0,0,562,0
11,1,1,0,0,561,0
12,1,1,0,0,561,0
13,1,1,0,0,561,0
14,1,1,0,0,561,0
15,1,1,0,0,560,0
0,1,1,0,0,560,0
1,1,1,0,0,558,0
2,1,1,0,0,556,0
3,1,1,0,0,555,0
4,1,1,0,0,552,0
5,1,1,0,0,552,0
6,1,1,0,0,553,0
7,1,1,0,0,553,0
8,1,1,0,0,553,0
9,1,1,0,0,553,0
10,1,1,0,0,554,0
11,1,1,0,0,556,0
12,1,1,0,0,558,0
13,1,1,0,0,559,0
14,1,1,0,0,559,0
15,1,1,0,0,560,0
0,1,1,0,0,561,0
1,1,1,0,0,561,0
2,1,1,0,0,560,0
3,1,1,0,0,559,0
4,1,1,0,0,558,0
5,1,1,0,0,557,0
6,1,1,0,0,555,0
7,1,1,0,0,552,0
8,1,1,0,0,551,0
9,1,1,0,0,550,0
10,1,1,0,0,547,0
11,1,1,0,0,546,0
12,1,1,0,0,545,0
13,1,1,0,0,544,0
14,1,1,0,0,545,0
15,1,1,0,0,545,0
0,1,1,0,0,547,0
1,1,1,0,0,550,0
2,1,1,0,0,554,0
3,1,1,0,0,556,0
4,1,1,0,0,558,0
5,1,1,0,0,560,0
6,1,1,0,0,560,0
7,1,1,0,0,557,0
8,1,1,0,0,557,0
9,1,1,0,0,556,0
10,1,1,0,0,555,0
11,1,1,0,0,556,0
12,1,1,0,0,555,0
13,1,1,0,0,555,0
14,1,1,0,0,553,0
15,1,1,0,0,552,0
0,1,1,0,0,551,0
1,1,1,0,0,551,0
2,1,1,0,0,551,0
3,1,1,0,0,553,0
4,1,1,0,0,556,0
5,1,1,0,0,559,0
6,1,1,0,0,560,0
7,1,1,0,0,563,0
8,1,1,0,0,564,0
9,1,1,0,0,565,0
10,1,1,0,0,565,0
11,1,1,0,0,567,0
12,1,1,0,0,570,0
13,1,1,0,0,570,0
14,1,1,0,0,570,0
15,1,1,0,0,569,0
0,1,1,0,0,570,0
1,1,1,0,0,569,0
2,1,1,0,0,568,0
3,1,1,0,0,567,0
4,1,1,0,0,567,0
5,1,1,0,0,564,0
6,1,1,0,0,564,0
7,1,1,0,0,564,0
8,1,1,0,0,563,0
9,1,1,0,0,560,0
10,1,1,0,0,560,0
11,1,1,0,0,559,0
12,1,1,0,0,559,0
13,1,1,0,0,560,0
14,1,1,0,0,562,0
15,1,1,0,0,560,0
0,1,1,0,0,558,0
1,1,1,0,0,556,0
2,1,1,0,0,554,0
3,1,1,0,0,553,0
4,1,1,0,0,553,0
5,1,1,0,0,554,0
6,1,1,0,0,552,0
7,1,1,0,0,550,0
8,1,1,0,0,550,0
9,1,1,0,0,548,0
10,1,1,0,0,547,0
11,1,1,0,0,548,0
12,1,1,0,0,549,0
13,1,1,0,0,547,0
14,1,1,0,0,546,0
15,1,1,0,0,544,0
0,1,1,0,0,542,0
1,1,1,0,0,539,0
2,1,1,0,0,537,0
3,1,1,0,0,534,0
4,1,1,0,0,531,0
5,1,1,0,0,531,0
6,1,1,0,0,530,0
7,1,1,0,0,531,0
8,1,1,0,0,532,0
9,1,1,0,0,534,0
10,1,1,0,0,537,0
11,1,1,0,0,540,0
12,1,1,0,0,544,0
13,1,1,0,0,547,0
14,1,1,0,0,550,0
15,1,1,0,0,553,0
0,1,1,0,0,555,0
1,1,1,0,0,557,0
2,1,1,0,0,558,0
3,1,1,0,0,558,0
4,1,1,0,0,558,0
5,1,1,0,0,557,0
6,1,1,0,0,556,0
7,1,1,0,0,555,0
8,1,1,0,0,552,0
9,1,1,0,0,550,0
10,1,1,0,0,548,0
11,1,1,0,0,545,0
12,1,1,0,0,543,0
13,1,1,0,0,542,0
14,1,1,0,0,541,0
15,1,1,0,0,541,0
0,1,1,0,0,541,0
1,1,1,0,0,540,0
2,1,1,0,0,541,0
3,1,1,0,0,542,0
4,1,1,0,0,542,0
5,1,1,0,0,541,0
6,1,1,0,0,541,0
7,1,1,0,0,541,0
8,1,1,0,0,541,0
9,1,1,0,0,540,0
10,1,1,0,0,540,0
11,1,1,0,0,538,0
12,1,1,0,0,536,0
13,1,1,0,0,533,0
14,1,1,0,0,530,0
15,1,1,0,0,530,0
0,1,1,0,0,529,0
1,1,1,0,0,526,0
2,1,1,0,0,525,0
3,1,1,0,0,524,0
4,1,1,0,0,525,0
5,1,1,0,0,525,0
6,1,1,0,0,527,0
7,1,1,0,0,528,0
8,1,1,0,0,529,0
9,1,1,0,0,529,0
10,1,1,0,0,528,0
11,1,1,0,0,526,0
12,1,1,0,0,527,0
13,1,1,0,0,528,0
14,1,1,0,0,529,0
15,1,1,0,0,529,0
0,1,1,0,0,527,0
1,1,1,0,0,522,0
2,1,1,0,0,519,0
3,1,1,0,0,516,0
4,1,1,0,0,514,0
5,1,1,0,0,514,0
6,1,1,0,0,514,0
7,1,1,0,0,515,0
8,1,1,0,0,516,0
9,1,1,0,0,518,0
10,1,1,0,0,520,0
11,1,1,0,0,522,0
12,1,1,0,0,525,0
13,1,1,0,0,527,0
14,1,1,0,0,528,0
15,1,1,0,0,527,0
0,1,1,0,0,527,0
1,1,1,0,0,526,0
2,1,1,0,0,523,0
3,1,1,0,0,520,0
4,1,1,0,0,516,0
5,1,1,0,0,513,0
6,1,1,0,0,511,0
7,1,1,0,0,510,0
8,1,1,0,0,510,0
9,1,1,0,0,509,0
10,1,1,0,0,509,0
11,1,1,0,0,510,0
12,1,1,0,0,512,0
13,1,1,0,0,515,0
14,1,1,0,0,520,0
15,1,1,0,0,525,0
0,1,1,0,0,529,0
1,1,1,0,0,532,0
2,1,1,0,0,534,0
3,1,1,0,0,535,0
4,1,1,0,0,535,0
5,1,1,0,0,536,0
6,1,1,0,0,536,0
7,1,1,0,0,534,0
8,1,1,0,0,533,0
9,1,1,0,0,531,0
10,1,1,0,0,526,0
11,1,1,0,0,521,0
12,1,1,0,0,518,0
13,1,1,0,0,514,0
14,1,1,0,0,512,0
15,1,1,0,0,510,0
0,1,1,0,0,508,0
1,1,1,0,0,508,0
2,1,1,0,0,508,0
3,1,1,0,0,508,0
4,1,1,0,0,508,0
5,1,1,0,0,507,0
6,1,1,0,0,506,0
7,1,1,0,0,505,0
8,1,1,0,0,504,0
9,1,1,0,0,504,0
10,1,1,0,0,503,0
11,1,1,0,0,501,0
12,1,1,0,0,499,0
13,1,1,0,0,499,0
14,1,1,0,0,497,0
15,1,1,0,0,494,0
0,1,1,0,0,492,0
1,1,1,0,0,490,0
2,1,1,0,0,489,0
3,1,1,0,0,487,0
4,1,1,0,0,487,0
5,1,1,0,0,488,0
6,1,1,0,0,489,0
7,1,1,0,0,491,0
8,1,1,0,0,492,0
9,1,1,0,0,492,0
10,1,1,0,0,493,0
11,1,1,0,0,494,0
12,1,1,0,0,494,0
13,1,1,0,0,497,0
14,1,1,0,0,498,0
15,1,1,0,0,499,0
0,1,1,0,0,499,0
1,1,1,0,0,499,0
2,1,1,0,0,498,0
3,1,1,0,0,497,0
4,1,1,0,0,496,0
5,1,1,0,0,495,0
6,1,1,0,0,493,0
7,1,1,0,0,493,0
8,1,1,0,0,493,0
9,1,1,0,0,495,0
10,1,1,0,0,496,0
11,1,1,0,0,501,0
12,1,1,0,0,506,0
13,1,1,0,0,511,0
14,1,1,0,0,514,0
15,1,1,0,0,517,0
0,1,1,0,0,521,0
1,1,1,0,0,525,0
2,1,1,0,0,527,0
3,1,1,0,0,525,0
4,1,1,0,0,524,0
5,1,1,0,0,522,0
6,1,1,0,0,519,0
7,1,1,0,0,516,0
8,1,1,0,0,513,0
9,1,1,0,0,511,0
10,1,1,0,0,508,0
11,1,1,0,0,507,0
12,1,1,0,0,508,0
13,1,1,0,0,508,0
14,1,1,0,0,508,0
15,1,1,0,0,511,0
0,1,1,0,0,512,0
1,1,1,0,0,512,0
2,1,1,0,0,513,0
3,1,1,0,0,515,0
4,1,1,0,0,515,0
5,1,1,0,0,516,0
6,1,1,0,0,517,0
7,1,1,0,0,516,0
8,1,1,0,0,514,0
9,1,1,0,0,514,0
10,1,1,0,0,513,0
11,1,1,0,0,512,0
12,1,1,0,0,510,0
13,1,1,0,0,509,0
14,1,1,0,0,506,0
15,1,1,0,0,504,0
0,1,1,0,0,504,0
1,1,1,0,0,504,0
2,1,1,0,0,505,0
3,1,1,0,0,507,0
4,1,1,0,0,507,0
5,1,1,0,0,508,0
6,1,1,0,0,510,0
7,1,1,0,0,511,0
8,1,1,0,0,512,0
9,1,1,0,0,514,0
10,1,1,0,0,514,0
11,1,1,0,0,514,0
12,1,1,0,0,513,0
13,1,1,0,0,513,0
14,1,1,0,0,514,0
15,1,1,0,0,515,0
0,1,1,0,0,513,0
1,1,1,0,0,512,0
2,1,1,0,0,511,0
3,1,1,0,0,510,0
4,1,1,0,0,510,0
5,1,1,0,0,509,0
6,1,1,0,0,509,0
7,1,1,0,0,509,0
8,1,1,0,0,510,0
9,1,1,0,0,511,0
10,1,1,0,0,510,0
11,1,1,0,0,510,0
12,1,1,0,0,511,0
13,1,1,0,0,511,0
14,1,1,0,0,511,0
15,1,1,0,0,510,0
0,1,1,0,0,510,0
1,1,1,0,0,509,0
2,1,1,0,0,508,0
3,1,1,0,0,508,0
4,1,1,0,0,508,0
5,1,1,0,0,509,0
6,1,1,0,0,511,0
7,1,1,0,0,510,0
8,1,1,0,0,510,0
9,1,1,0,0,509,0
10,1,1,0,0,508,0
11,1,1,0,0,508,0
12,1,1,0,0,508,0
13,1,1,0,0,506,0
14,1,1,0,0,505,0
15,1,1,0,0,504,0
0,1,1,0,0,503,0
1,1,1,0,0,502,0
2,1,1,0,0,501,0
3,1,1,0,0,499,0
4,1,1,0,0,497,0
5,1,1,0,0,496,0
6,1,1,0,0,493,0
7,1,1,0,0,489,0
8,1,1,0,0,487,0
9,1,1,0,0,487,0
10,1,1,0,0,486,0
11,1,1,0,0,486,0
12,1,1,0,0,486,0
13,1,1,0,0,487,0
14,1,1,0,0,487,0
15,1,1,0,0,489,0
0,1,1,0,0,491,0
1,1,1,0,0,494,0
2,1,1,0,0,495,0
3,1,1,0,0,496,0
4,1,1,0,0,496,0
5,1,1,0,0,496,0
6,1,1,0,0,496,0
7,1,1,0,0,498,0
8,1,1,0,0,498,0
9,1,1,0,0,498,0
10,1,1,0,0,496,0
11,1,1,0,0,495,0
12,1,1,0,0,495,0
13,1,1,0,0,492,0
14,1,1,0,0,491,0
15,1,1,0,0,491,0
0,1,1,0,0,493,0
1,1,1,0,0,495,0
2,1,1,0,0,496,0
3,1,1,0,0,498,0
4,1,1,0,0,500,0
5,1,1,0,0,502,0
6,1,1,0,0,502,0
7,1,1,0,0,502,0
8,1,1,0,0,503,0
9,1,1,0,0,503,0
10,1,1,0,0,503,0
11,1,1,0,0,501,0
12,1,1,0,0,500,0
13,1,1,0,0,500,0
14,1,1,0,0,500,0
15,1,1,0,0,498,0
0,1,1,0,0,495,0
1,1,1,0,0,494,0
2,1,1,0,0,492,0
3,1,1,0,0,491,0
4,1,1,0,0,489,0
5,1,1,0,0,489,0
6,1,1,0,0,489,0
7,1,1,0,0,490,0
8,1,1,0,0,492,0
9,1,1,0,0,492,0
10,1,1,0,0,492,0
11,1,1,0,0,491,0
12,1,1,0,0,488,0
13,1,1,0,0,489,0
14,1,1,0,0,489,0
15,1,1,0,0,487,0
0,1,1,0,0,485,0
1,1,1,0,0,484,0
2,1,1,0,0,482,0
3,1,1,0,0,481,0
4,1,1,0,0,481,0
5,1,1,0,0,483,0
6,1,1,0,0,485,0
7,1,1,0,0,487,0
8,1,1,0,0,488,0
9,1,1,0,0,491,0
10,1,1,0,0,495,0
11,1,1,0,0,499,0
12,1,1,0,0,500,0
13,1,1,0,0,502,0
14,1,1,0,0,503,0
15,1,1,0,0,503,0
0,1,1,0,0,504,0
1,1,1,0,0,504,0
2,1,1,0,0,503,0
3,1,1,0,0,501,0
4,1,1,0,0,500,0
5,1,1,0,0,500,0
6,1,1,0,0,500,0
7,1,1,0,0,497,0
8,1,1,0,0,497,0
9,1,1,0,0,496,0
10,1,1,0,0,496,0
11,1,1,0,0,496,0
12,1,1,0,0,498,0
13,1,1,0,0,500,0
14,1,1,0,0,503,0
15,1,1,0,0,507,0
0,1,1,0,0,511,0
1,1,1,0,0,514,0
2,1,1,0,0,517,0
3,1,1,0,0,521,0
4,1,1,0,0,523,0
5,1,1,0,0,522,0
6,1,1,0,0,521,0
7,1,1,0,0,519,0
8,1,1,0,0,518,0
9,1,1,0,0,513,0
10,1,1,0,0,510,0
11,1,1,0,0,507,0
12,1,1,0,0,506,0
13,1,1,0,0,505,0
14,1,1,0,0,505,0
15,1,1,0,0,504,0
0,1,1,0,0,504,0
1,1,1,0,0,504,0
2,1,1,0,0,504,0
3,1,1,0,0,504,0
4,1,1,0,0,505,0
5,1,1,0,0,505,0
6,1,1,0,0,506,0
7,1,1,0,0,508,0
8,1,1,0,0,507,0
9,1,1,0,0,506,0
10,1,1,0,0,506,0
11,1,1,0,0,507,0
12,1,1,0,0,504,0
13,1,1,0,0,500,0
14,1,1,0,0,497,0
15,1,1,0,0,494,0
0,1,1,0,0,494,0
1,1,1,0,0,493,0
2,1,1,0,0,492,0
3,1,1,0,0,491,0
4,1,1,0,0,491,0
5,1,1,0,0,489,0
6,1,1,0,0,488,0
7,1,1,0,0,487,0
8,1,1,0,0,487,0
9,1,1,0,0,489,0
10,1,1,0,0,490,0
11,1,1,0,0,492,0
12,1,1,0,0,494,0
13,1,1,0,0,495,0
14,1,1,0,0,496,0
15,1,1,0,0,495,0
0,1,1,0,0,493,0
1,1,1,0,0,491,0
2,1,1,0,0,489,0
3,1,1,0,0,486,0
4,1,1,0,0,481,0
5,1,1,0,0,478,0
6,1,1,0,0,476,0
7,1,1,0,0,475,0
8,1,1,0,0,475,0
9,1,1,0,0,475,0
10,1,1,0,0,477,0
11,1,1,0,0,480,0
12,1,1,0,0,483,0
13,1,1,0,0,486,0
14,1,1,0,0,491,0
15,1,1,0,0,494,0
0,1,1,0,0,496,0
1,1,1,0,0,496,0
2,1,1,0,0,497,0
3,1,1,0,0,497,0
4,1,1,0,0,496,0
5,1,1,0,0,497,0
6,1,1,0,0,495,0
7,1,1,0,0,492,0
8,1,1,0,0,493,0
9,1,1,0,0,494,0
10,1,1,0,0,494,0
11,1,1,0,0,494,0
12,1,1,0,0,495,0
13,1,1,0,0,499,0
14,1,1,0,0,504,0
15,1,1,0,0,511,0
0,1,1,0,0,517,0
1,1,1,0,0,523,0
2,1,1,0,0,528,0
3,1,1,0,0,534,0
4,1,1,0,0,536,0
5,1,1,0,0,535,0
6,1,1,0,0,530,0
7,1,1,0,0,524,0
8,1,1,0,0,519,0
9,1,1,0,0,520,0
10,1,1,0,0,519,0
11,1,1,0,0,517,0
12,1,1,0,0,516,0
13,1,1,0,0,513,0
14,1,1,0,0,509,0
15,1,1,0,0,505,0
0,1,1,0,0,504,0
1,1,1,0,0,501,0
2,1,1,0,0,499,0
3,1,1,0,0,500,0
4,1,1,0,0,501,0
5,1,1,0,0,503,0
6,1,1,0,0,503,0
7,1,1,0,0,503,0
8,1,1,0,0,504,0
9,1,1,0,0,506,0
10,1,1,0,0,506,0
11,1,1,0,0,504,0
12,1,1,0,0,502,0
13,1,1,0,0,500,0
14,1,1,0,0,496,0
15,1,1,0,0,494,0
0,1,1,0,0,493,0
1,1,1,0,0,493,0
2,1,1,0,0,493,0
3,1,1,0,0,491,0
4,1,1,0,0,492,0
5,1,1,0,0,492,0
6,1,1,0,0,492,0
7,1,1,0,0,494,0
8,1,1,0,0,496,0
9,1,1,0,0,497,0
10,1,1,0,0,498,0
11,1,1,0,0,499,0
12,1,1,0,0,501,0
13,1,1,0,0,503,0
14,1,1,0,0,504,0
15,1,1,0,0,504,0
0,1,1,0,0,502,0
1,1,1,0,0,501,0
2,1,1,0,0,499,0
3,1,1,0,0,498,0
4,1,1,0,0,497,0
5,1,1,0,0,495,0
6,1,1,0,0,493,0
7,1,1,0,0,491,0
8,1,1,0,0,488,0
9,1,1,0,0,485,0
10,1,1,0,0,483,0
11,1,1,0,0,484,0
12,1,1,0,0,484,0
13,1,1,0,0,483,0
14,1,1,0,0,481,0
15,1,1,0,0,478,0
0,1,1,0,0,476,0
1,1,1,0,0,475,0
2,1,1,0,0,473,0
3,1,1,0,0,473,0
4,1,1,0,0,473,0
5,1,1,0,0,472,0
6,1,1,0,0,470,0
7,1,1,0,0,470,0
8,1,1,0,0,467,0
9,1,1,0,0,466,0
10,1,1,0,0,466,0
11,1,1,0,0,466,0
12,1,1,0,0,466,0
13,1,1,0,0,468,0
14,1,1,0,0,468,0
15,1,1,0,0,468,0
0,1,1,0,0,470,0
1,1,1,0,0,471,0
2,1,1,0,0,472,0
3,1,1,0,0,473,0
4,1,1,0,0,475,0
5,1,1,0,0,475,0
6,1,1,0,0,476,0
7,1,1,0,0,477,0
8,1,1,0,0,475,0
9,1,1,0,0,473,0
10,1,1,0,0,472,0
11,1,1,0,0,468,0
12,1,1,0,0,464,0
13,1,1,0,0,461,0
14,1,1,0,0,454,0
15,1,1,0,0,447,0
0,1,1,0,0,440,0
1,1,1,0,0,433,0
2,1,1,0,0,429,0
3,1,1,0,0,426,0
4,1,1,0,0,423,0
5,1,1,0,0,419,0
6,1,1,0,0,416,0
7,1,1,0,0,414,0
8,1,1,0,0,414,0
9,1,1,0,0,414,0
10,1,1,0,0,412,0
11,1,1,0,0,409,0
12,1,1,0,0,407,0
13,1,1,0,0,404,0
14,1,1,0,0,405,0
15,1,1,0,0,407,0
0,1,1,0,0,409,0
1,1,1,0,0,414,0
2,1,1,0,0,423,0
3,1,1,0,0,437,0
4,1,1,0,0,453,0
5,1,1,0,0,467,0
6,1,1,0,0,483,0
7,1,1,0,0,499,0
8,1,1,0,0,515,0
9,1,1,0,0,529,0
10,1,1,0,0,543,0
11,1,1,0,0,559,0
12,1,1,0,0,579,0
13,1,1,0,0,602,0
14,1,1,0,0,624,0
15,1,1,0,0,647,0
0,1,1,0,0,673,0
1,1,1,0,0,699,0
2,1,1,0,0,721,0
3,1,1,0,0,738,0
4,1,1,0,0,749,0
5,1,1,0,0,753,0
6,1,1,0,0,754,0
7,1,1,0,0,752,0
8,1,1,0,0,752,0
9,1,1,0,0,756,0
10,1,1,0,0,760,0
11,1,1,0,0,762,0
12,1,1,0,0,761,0
13,1,1,0,0,758,0
14,1,1,0,0,756,0
15,1,1,0,0,751,0
0,1,1,0,0,740,0
1,1,1,0,0,728,0
2,1,1,0,0,716,0
3,1,1,0,0,701,0
4,1,1,0,0,683,0
5,1,1,0,0,664,0
6,1,1,0,0,643,0
7,1,1,0,0,622,0
8,1,1,0,0,599,0
9,1,1,0,0,579,0
10,1,1,0,0,561,0
11,1,1,0,0,546,0
12,1,1,0,0,535,0
13,1,1,0,0,523,0
14,1,1,0,0,512,0
15,1,1,0,0,504,0
0,1,1,0,0,498,0
1,1,1,0,0,492,0
2,1,1,0,0,486,0
3,1,1,0,0,481,0
4,1,1,0,0,478,0
5,1,1,0,0,476,0
6,1,1,0,0,476,0
7,1,1,0,0,475,0
8,1,1,0,0,471,0
9,1,1,0,0,467,0
10,1,1,0,0,467,0
11,1,1,0,0,465,0
12,1,1,0,0,463,0
13,1,1,0,0,463,0
14,1,1,0,0,463,0
15,1,1,0,0,462,0
0,1,1,0,0,462,0
1,1,1,0,0,461,0
2,1,1,0,0,459,0
3,1,1,0,0,458,0
4,1,1,0,0,458,0
5,1,1,0,0,459,0
6,1,1,0,0,458,0
7,1,1,0,0,459,0
8,1,1,0,0,459,0
9,1,1,0,0,460,0
10,1,1,0,0,460,0
11,1,1,0,0,458,0
12,1,1,0,0,455,0
13,1,1,0,0,453,0
14,1,1,0,0,450,0
15,1,1,0,0,444,0
0,1,1,0,0,441,0
1,1,1,0,0,440,0
2,1,1,0,0,438,0
3,1,1,0,0,439,0
4,1,1,0,0,441,0
5,1,1,0,0,443,0
6,1,1,0,0,446,0
7,1,1,0,0,450,0
8,1,1,0,0,456,0
9,1,1,0,0,460,0
10,1,1,0,0,466,0
11,1,1,0,0,470,0
12,1,1,0,0,472,0
13,1,1,0,0,472,0
14,1,1,0,0,474,0
15,1,1,0,0,472,0
0,1,1,0,0,470,0
1,1,1,0,0,467,0
2,1,1,0,0,463,0
3,1,1,0,0,459,0
4,1,1,0,0,457,0
5,1,1,0,0,457,0
6,1,1,0,0,456,0
7,1,1,0,0,455,0
8,1,1,0,0,457,0
9,1,1,0,0,457,0
10,1,1,0,0,460,0
11,1,1,0,0,464,0
12,1,1,0,0,467,0
13,1,1,0,0,471,0
14,1,1,0,0,473,0
15,1,1,0,0,475,0
0,1,1,0,0,477,0
1,1,1,0,0,480,0
2,1,1,0,0,483,0
3,1,1,0,0,485,0
4,1,1,0,0,486,0
5,1,1,0,0,488,0
6,1,1,0,0,490,0
7,1,1,0,0,492,0
8,1,1,0,0,495,0
9,1,1,0,0,497,0
10,1,1,0,0,497,0
11,1,1,0,0,500,0
12,1,1,0,0,502,0
13,1,1,0,0,503,0
14,1,1,0,0,507,0
15,1,1,0,0,508,0
0,1,1,0,0,510,0
1,1,1,0,0,511,0
2,1,1,0,0,511,0
3,1,1,0,0,511,0
4,1,1,0,0,510,0
5,1,1,0,0,510,0
6,1,1,0,0,512,0
7,1,1,0,0,513,0
8,1,1,0,0,513,0
9,1,1,0,0,515,0
10,1,1,0,0,517,0
11,1,1,0,0,518,0
12,1,1,0,0,518,0
13,1,1,0,0,518,0
14,1,1,0,0,516,0
15,1,1,0,0,513,0
0,1,1,0,0,511,0
1,1,1,0,0,508,0
2,1,1,0,0,506,0
3,1,1,0,0,506,0
4,1,1,0,0,507,0
5,1,1,0,0,508,0
6,1,1,0,0,508,0
7,1,1,0,0,507,0
8,1,1,0,0,509,0
9,1,1,0,0,513,0
10,1,1,0,0,515,0
11,1,1,0,0,517,0
12,1,1,0,0,515,0
13,1,1,0,0,515,0
14,1,1,0,0,513,0
15,1,1,0,0,508,0
0,1,1,0,0,505,0
1,1,1,0,0,503,0
2,1,1,0,0,498,0
3,1,1,0,0,493,0
4,1,1,0,0,488,0
5,1,1,0,0,486,0
6,1,1,0,0,483,0
7,1,1,0,0,483,0
8,1,1,0,0,483,0
9,1,1,0,0,484,0
10,1,1,0,0,486,0
11,1,1,0,0,487,0
12,1,1,0,0,487,0
13,1,1,0,0,488,0
14,1,1,0,0,491,0
15,1,1,0,0,492,0
0,1,1,0,0,495,0
1,1,1,0,0,498,0
2,1,1,0,0,501,0
3,1,1,0,0,501,0
4,1,1,0,0,502,0
5,1,1,0,0,504,0
6,1,1,0,0,505,0
7,1,1,0,0,504,0
8,1,1,0,0,503,0
9,1,1,0,0,502,0
10,1,1,0,0,501,0
11,1,1,0,0,502,0
12,1,1,0,0,502,0
13,1,1,0,0,500,0
14,1,1,0,0,499,0
15,1,1,0,0,499,0
0,1,1,0,0,497,0
1,1,1,0,0,497,0
2,1,1,0,0,496,0
3,1,1,0,0,497,0
4,1,1,0,0,496,0
5,1,1,0,0,497,0
6,1,1,0,0,498,0
7,1,1,0,0,499,0
8,1,1,0,0,500,0
9,1,1,0,0,504,0
10,1,1,0,0,506,0
11,1,1,0,0,506,0
12,1,1,0,0,508,0
13,1,1,0,0,510,0
14,1,1,0,0,512,0
15,1,1,0,0,514,0
0,1,1,0,0,517,0
1,1,1,0,0,518,0
2,1,1,0,0,520,0
3,1,1,0,0,521,0
4,1,1,0,0,520,0
5,1,1,0,0,519,0
6,1,1,0,0,520,0
7,1,1,0,0,522,0
8,1,1,0,0,523,0
9,1,1,0,0,524,0
10,1,1,0,0,526,0
11,1,1,0,0,526,0
12,1,1,0,0,524,0
13,1,1,0,0,522,0
14,1,1,0,0,521,0
15,1,1,0,0,519,0
0,1,1,0,0,517,0
1,1,1,0,0,517,0
2,1,1,0,0,516,0
3,1,1,0,0,517,0
4,1,1,0,0,516,0
5,1,1,0,0,515,0
6,1,1,0,0,513,0
7,1,1,0,0,512,0
8,1,1,0,0,510,0
9,1,1,0,0,509,0
10,1,1,0,0,509,0
11,1,1,0,0,510,0
12,1,1,0,0,510,0
13,1,1,0,0,509,0
14,1,1,0,0,508,0
15,1,1,0,0,508,0
0,1,1,0,0,506,0
1,1,1,0,0,503,0
2,1,1,0,0,502,0
3,1,1,0,0,499,0
4,1,1,0,0,499,0
5,1,1,0,0,496,0
6,1,1,0,0,493,0
7,1,1,0,0,489,0
8,1,1,0,0,488,0
9,1,1,0,0,488,0
10,1,1,0,0,487,0
11,1,1,0,0,483,0
12,1,1,0,0,481,0
13,1,1,0,0,479,0
14,1,1,0,0,478,0
15,1,1,0,0,476,0
0,1,1,0,0,474,0
1,1,1,0,0,474,0
2,1,1,0,0,475,0
3,1,1,0,0,478,0
4,1,1,0,0,479,0
5,1,1,0,0,480,0
6,1,1,0,0,483,0
7,1,1,0,0,487,0
8,1,1,0,0,491,0
9,1,1,0,0,493,0
10,1,1,0,0,495,0
11,1,1,0,0,496,0
12,1,1,0,0,496,0
13,1,1,0,0,496,0
14,1,1,0,0,496,0
15,1,1,0,0,492,0
0,1,1,0,0,490,0
1,1,1,0,0,487,0
2,1,1,0,0,487,0
3,1,1,0,0,486,0
4,1,1,0,0,484,0
5,1,1,0,0,480,0
6,1,1,0,0,478,0
7,1,1,0,0,477,0
8,1,1,0,0,478,0
9,1,1,0,0,479,0
10,1,1,0,0,483,0
11,1,1,0,0,487,0
12,1,1,0,0,491,0
13,1,1,0,0,495,0
14,1,1,0,0,502,0
15,1,1,0,0,508,0
0,1,1,0,0,513,0
1,1,1,0,0,520,0
2,1,1,0,0,525,0
3,1,1,0,0,529,0
4,1,1,0,0,532,0
5,1,1,0,0,535,0
6,1,1,0,0,541,0
7,1,1,0,0,543,0
8,1,1,0,0,544,0
9,1,1,0,0,547,0
10,1,1,0,0,549,0
11,1,1,0,0,551,0
12,1,1,0,0,553,0
13,1,1,0,0,556,0
14,1,1,0,0,559,0
15,1,1,0,0,561,0
0,1,1,0,0,563,0
1,1,1,0,0,564,0
2,1,1,0,0,566,0
3,1,1,0,0,567,0
4,1,1,0,0,568,0
5,1,1,0,0,569,0
6,1,1,0,0,571,0
7,1,1,0,0,573,0
8,1,1,0,0,574,0
9,1,1,0,0,575,0
10,1,1,0,0,575,0
11,1,1,0,0,574,0
12,1,1,0,0,571,0
13,1,1,0,0,568,0
14,1,1,0,0,567,0
15,1,1,0,0,564,0
0,1,1,0,0,561,0
1,1,1,0,0,559,0
2,1,1,0,0,556,0
3,1,1,0,0,553,0
4,1,1,0,0,551,0
5,1,1,0,0,549,0
6,1,1,0,0,548,0
7,1,1,0,0,551,0
8,1,1,0,0,552,0
9,1,1,0,0,552,0
10,1,1,0,0,554,0
11,1,1,0,0,554,0
12,1,1,0,0,554,0
13,1,1,0,0,555,0
14,1,1,0,0,554,0
15,1,1,0,0,552,0
0,1,1,0,0,553,0
1,1,1,0,0,555,0
2,1,1,0,0,552,0
3,1,1,0,0,552,0
4,1,1,0,0,551,0
5,1,1,0,0,551,0
6,1,1,0,0,551,0
7,1,1,0,0,549,0
8,1,1,0,0,549,0
9,1,1,0,0,550,0
10,1,1,0,0,548,0
11,1,1,0,0,548,0
12,1,1,0,0,546,0
13,1,1,0,0,545,0
14,1,1,0,0,544,0
15,1,1,0,0,541,0
0,1,1,0,0,539,0
1,1,1,0,0,537,0
2,1,1,0,0,534,0
3,1,1,0,0,533,0
4,1,1,0,0,529,0
5,1,1,0,0,526,0
6,1,1,0,0,523,0
7,1,1,0,0,519,0
8,1,1,0,0,518,0
9,1,1,0,0,518,0
10,1,1,0,0,517,0
11,1,1,0,0,519,0
12,1,1,0,0,525,0
13,1,1,0,0,532,0
14,1,1,0,0,542,0
15,1,1,0,0,548,0
0,1,1,0,0,553,0
1,1,1,0,0,555,0
2,1,1,0,0,555,0
3,1,1,0,0,551,0
4,1,1,0,0,546,0
5,1,1,0,0,540,0
6,1,1,0,0,534,0
7,1,1,0,0,525,0
8,1,1,0,0,517,0
9,1,1,0,0,509,0
10,1,1,0,0,500,0
11,1,1,0,0,495,0
12,1,1,0,0,489,0
13,1,1,0,0,484,0
14,1,1,0,0,483,0
15,1,1,0,0,484,0
0,1,1,0,0,484,0
1,1,1,0,0,484,0
2,1,1,0,0,485,0
3,1,1,0,0,488,0
4,1,1,0,0,490,0
5,1,1,0,0,494,0
6,1,1,0,0,497,0
7,1,1,0,0,500,0
8,1,1,0,0,503,0
9,1,1,0,0,505,0
10,1,1,0,0,509,0
11,1,1,0,0,510,0
12,1,1,0,0,513,0
13,1,1,0,0,518,0
14,1,1,0,0,518,0
15,1,1,0,0,517,0
0,1,1,0,0,520,0
1,1,1,0,0,521,0
2,1,1,0,0,523,0
3,1,1,0,0,528,0
4,1,1,0,0,532,0
5,1,1,0,0,535,0
6,1,1,0,0,537,0
7,1,1,0,0,539,0
8,1,1,0,0,542,0
9,1,1,0,0,546,0
10,1,1,0,0,550,0
11,1,1,0,0,555,0
12,1,1,0,0,558,0
13,1,1,0,0,562,0
14,1,1,0,0,565,0
15,1,1,0,0,566,0
0,1,1,0,0,567,0
1,1,1,0,0,568,0
2,1,1,0,0,571,0
3,1,1,0,0,573,0
4,1,1,0,0,572,0
5,1,1,0,0,573,0
6,1,1,0,0,573,0
7,1,1,0,0,573,0
8,1,1,0,0,574,0
9,1,1,0,0,570,0
10,1,1,0,0,571,0
11,1,1,0,0,572,0
12,1,1,0,0,575,0
13,1,1,0,0,576,0
14,1,1,0,0,576,0
15,1,1,0,0,575,0
0,1,1,0,0,571,0
1,1,1,0,0,568,0
2,1,1,0,0,566,0
3,1,1,0,0,563,0
4,1,1,0,0,563,0
5,1,1,0,0,562,0
6,1,1,0,0,561,0
7,1,1,0,0,558,0
8,1,1,0,0,557,0
9,1,1,0,0,555,0
10,1,1,0,0,553,0
11,1,1,0,0,551,0
12,1,1,0,0,553,0
13,1,1,0,0,553,0
14,1,1,0,0,553,0
15,1,1,0,0,551,0
0,1,1,0,0,551,0
1,1,1,0,0,553,0
2,1,1,0,0,552,0
3,1,1,0,0,553,0
4,1,1,0,0,551,0
5,1,1,0,0,547,0
6,1,1,0,0,542,0
7,1,1,0,0,535,0
8,1,1,0,0,530,0
9,1,1,0,0,523,0
10,1,1,0,0,514,0
11,1,1,0,0,509,0
12,1,1,0,0,505,0
13,1,1,0,0,500,0
14,1,1,0,0,498,0
15,1,1,0,0,496,0
0,1,1,0,0,495,0
1,1,1,0,0,497,0
2,1,1,0,0,502,0
3,1,1,0,0,508,0
4,1,1,0,0,513,0
5,1,1,0,0,515,0
6,1,1,0,0,515,0
7,1,1,0,0,513,0
8,1,1,0,0,511,0
9,1,1,0,0,510,0
10,1,1,0,0,508,0
11,1,1,0,0,505,0
12,1,1,0,0,499,0
13,1,1,0,0,496,0
14,1,1,0,0,492,0
15,1,1,0,0,488,0
0,1,1,0,0,486,0
1,1,1,0,0,483,0
2,1,1,0,0,483,0
3,1,1,0,0,481,0
4,1,1,0,0,479,0
5,1,1,0,0,479,0
6,1,1,0,0,479,0
7,1,1,0,0,480,0
8,1,1,0,0,481,0
9,1,1,0,0,481,0
10,1,1,0,0,481,0
11,1,1,0,0,481,0
12,1,1,0,0,483,0
13,1,1,0,0,483,0
14,1,1,0,0,484,0
15,1,1,0,0,487,0
0,1,1,0,0,488,0
1,1,1,0,0,488,0
2,1,1,0,0,490,0
3,1,1,0,0,491,0
4,1,1,0,0,488,0
5,1,1,0,0,483,0
6,1,1,0,0,481,0
7,1,1,0,0,482,0
8,1,1,0,0,483,0
9,1,1,0,0,484,0
10,1,1,0,0,486,0
11,1,1,0,0,487,0
12,1,1,0,0,488,0
13,1,1,0,0,487,0
14,1,1,0,0,487,0
15,1,1,0,0,486,0
0,1,1,0,0,485,0
1,1,1,0,0,486,0
2,1,1,0,0,487,0
3,1,1,0,0,487,0
4,1,1,0,0,489,0
5,1,1,0,0,494,0
6,1,1,0,0,495,0
7,1,1,0,0,494,0
8,1,1,0,0,496,0
9,1,1,0,0,496,0
10,1,1,0,0,496,0
11,1,1,0,0,498,0
12,1,1,0,0,499,0
13,1,1,0,0,496,0
14,1,1,0,0,494,0
15,1,1,0,0,494,0
0,1,1,0,0,492,0
1,1,1,0,0,492,0
2,1,1,0,0,488,0
3,1,1,0,0,488,0
4,1,1,0,0,486,0
5,1,1,0,0,482,0
6,1,1,0,0,480,0
7,1,1,0,0,476,0
8,1,1,0,0,470,0
9,1,1,0,0,465,0
10,1,1,0,0,462,0
11,1,1,0,0,457,0
12,1,1,0,0,452,0
13,1,1,0,0,448,0
14,1,1,0,0,443,0
15,1,1,0,0,441,0
0,1,1,0,0,443,0
1,1,1,0,0,442,0
2,1,1,0,0,446,0
3,1,1,0,0,447,0
4,1,1,0,0,449,0
5,1,1,0,0,451,0
6,1,1,0,0,455,0
7,1,1,0,0,455,0
8,1,1,0,0,455,0
9,1,1,0,0,456,0
10,1,1,0,0,458,0
11,1,1,0,0,460,0
12,1,1,0,0,463,0
13,1,1,0,0,465,0
14,1,1,0,0,468,0
15,1,1,0,0,472,0
0,1,1,0,0,474,0
1,1,1,0,0,476,0
2,1,1,0,0,480,0
3,1,1,0,0,481,0
4,1,1,0,0,481,0
5,1,1,0,0,485,0
6,1,1,0,0,487,0
7,1,1,0,0,489,0
8,1,1,0,0,488,0
9,1,1,0,0,489,0
10,1,1,0,0,491,0
11,1,1,0,0,491,0
12,1,1,0,0,489,0
13,1,1,0,0,489,0
14,1,1,0,0,491,0
15,1,1,0,0,492,0
0,1,1,0,0,493,0
1,1,1,0,0,493,0
2,1,1,0,0,493,0
3,1,1,0,0,492,0
4,1,1,0,0,489,0
5,1,1,0,0,490,0
6,1,1,0,0,492,0
7,1,1,0,0,492,0
8,1,1,0,0,492,0
9,1,1,0,0,494,0
10,1,1,0,0,498,0
11,1,1,0,0,501,0
12,1,1,0,0,503,0
13,1,1,0,0,507,0
14,1,1,0,0,514,0
15,1,1,0,0,523,0
0,1,1,0,0,531,0
1,1,1,0,0,539,0
2,1,1,0,0,546,0
3,1,1,0,0,548,0
4,1,1,0,0,548,0
5,1,1,0,0,548,0
6,1,1,0,0,545,0
7,1,1,0,0,540,0
8,1,1,0,0,534,0
9,1,1,0,0,528,0
10,1,1,0,0,524,0
11,1,1,0,0,518,0
12,1,1,0,0,514,0
13,1,1,0,0,510,0
14,1,1,0,0,507,0
15,1,1,0,0,507,0
0,1,1,0,0,508,0
1,1,1,0,0,507,0
2,1,1,0,0,509,0
3,1,1,0,0,511,0
4,1,1,0,0,510,0
5,1,1,0,0,507,0
6,1,1,0,0,508,0
7,1,1,0,0,510,0
8,1,1,0,0,511,0
9,1,1,0,0,508,0
10,1,1,0,0,507,0
11,1,1,0,0,507,0
12,1,1,0,0,507,0
13,1,1,0,0,509,0
14,1,1,0,0,511,0
15,1,1,0,0,510,0
0,1,1,0,0,511,0
1,1,1,0,0,511,0
2,1,1,0,0,512,0
3,1,1,0,0,515,0
4,1,1,0,0,517,0
5,1,1,0,0,519,0
6,1,1,0,0,519,0
7,1,1,0,0,518,0
8,1,1,0,0,519,0
9,1,1,0,0,519,0
10,1,1,0,0,521,0
11,1,1,0,0,522,0
12,1,1,0,0,520,0
13,1,1,0,0,519,0
14,1,1,0,0,519,0
15,1,1,0,0,517,0
0,1,1,0,0,515,0
1,1,1,0,0,513,0
2,1,1,0,0,509,0
3,1,1,0,0,508,0
4,1,1,0,0,505,0
5,1,1,0,0,503,0
6,1,1,0,0,501,0
7,1,1,0,0,502,0
8,1,1,0,0,500,0
9,1,1,0,0,500,0
10,1,1,0,0,498,0
11,1,1,0,0,498,0
12,1,1,0,0,501,0
13,1,1,0,0,503,0
14,1,1,0,0,506,0
15,1,1,0,0,508,0
0,1,1,0,0,508,0
1,1,1,0,0,508,0
2,1,1,0,0,507,0
3,1,1,0,0,507,0
4,1,1,0,0,506,0
5,1,1,0,0,504,0
6,1,1,0,0,506,0
7,1,1,0,0,502,0
8,1,1,0,0,502,0
9,1,1,0,0,503,0
10,1,1,0,0,501,0
11,1,1,0,0,499,0
12,1,1,0,0,500,0
13,1,1,0,0,503,0
14,1,1,0,0,505,0
15,1,1,0,0,508,0
0,1,1,0,0,514,0
1,1,1,0,0,520,0
2,1,1,0,0,524,0
3,1,1,0,0,530,0
4,1,1,0,0,534,0
5,1,1,0,0,539,0
6,1,1,0,0,542,0
7,1,1,0,0,545,0
8,1,1,0,0,548,0
9,1,1,0,0,546,0
10,1,1,0,0,543,0
11,1,1,0,0,541,0
12,1,1,0,0,535,0
13,1,1,0,0,531,0
14,1,1,0,0,527,0
15,1,1,0,0,523,0
0,1,1,0,0,519,0
1,1,1,0,0,518,0
2,1,1,0,0,515,0
3,1,1,0,0,515,0
4,1,1,0,0,516,0
5,1,1,0,0,519,0
6,1,1,0,0,523,0
7,1,1,0,0,527,0
8,1,1,0,0,530,0
9,1,1,0,0,532,0
10,1,1,0,0,534,0
11,1,1,0,0,537,0
12,1,1,0,0,540,0
13,1,1,0,0,542,0
14,1,1,0,0,544,0
15,1,1,0,0,545,0
0,1,1,0,0,548,0
1,1,1,0,0,551,0
2,1,1,0,0,555,0
3,1,1,0,0,559,0
4,1,1,0,0,560,0
5,1,1,0,0,561,0
6,1,1,0,0,564,0
7,1,1,0,0,566,0
8,1,1,0,0,569,0
9,1,1,0,0,573,0
10,1,1,0,0,575,0
11,1,1,0,0,575,0
12,1,1,0,0,575,0
13,1,1,0,0,577,0
14,1,1,0,0,577,0
15,1,1,0,0,575,0
0,1,1,0,0,572,0
1,1,1,0,0,571,0
2,1,1,0,0,571,0
3,1,1,0,0,570,0
4,1,1,0,0,569,0
5,1,1,0,0,570,0
6,1,1,0,0,570,0
7,1,1,0,0,570,0
8,1,1,0,0,572,0
9,1,1,0,0,566,0
10,1,1,0,0,563,0
11,1,1,0,0,563,0
12,1,1,0,0,561,0
13,1,1,0,0,561,0
14,1,1,0,0,562,0
15,1,1,0,0,560,0
0,1,1,0,0,561,0
1,1,1,0,0,561,0
2,1,1,0,0,562,0
3,1,1,0,0,561,0
4,1,1,0,0,563,0
5,1,1,0,0,566,0
6,1,1,0,0,569,0
7,1,1,0,0,574,0
8,1,1,0,0,579,0
9,1,1,0,0,586,0
10,1,1,0,0,592,0
11,1,1,0,0,595,0
12,1,1,0,0,594,0
13,1,1,0,0,593,0
14,1,1,0,0,590,0
15,1,1,0,0,583,0
0,1,1,0,0,574,0
1,1,1,0,0,566,0
2,1,1,0,0,559,0
3,1,1,0,0,550,0
4,1,1,0,0,541,0
5,1,1,0,0,536,0
6,1,1,0,0,532,0
7,1,1,0,0,531,0
8,1,1,0,0,529,0
9,1,1,0,0,531,0
10,1,1,0,0,531,0
11,1,1,0,0,533,0
12,1,1,0,0,536,0
13,1,1,0,0,539,0
14,1,1,0,0,540,0
15,1,1,0,0,539,0
0,1,1,0,0,542,0
1,1,1,0,0,545,0
2,1,1,0,0,549,0
3,1,1,0,0,555,0
4,1,1,0,0,560,0
5,1,1,0,0,561,0
6,1,1,0,0,563,0
7,1,1,0,0,563,0
8,1,1,0,0,558,0
9,1,1,0,0,557,0
10,1,1,0,0,553,0
11,1,1,0,0,547,0
12,1,1,0,0,547,0
13,1,1,0,0,548,0
14,1,1,0,0,549,0
15,1,1,0,0,546,0
0,1,1,0,0,543,0
1,1,1,0,0,541,0
2,1,1,0,0,541,0
3,1,1,0,0,541,0
4,1,1,0,0,542,0
5,1,1,0,0,546,0
6,1,1,0,0,548,0
7,1,1,0,0,549,0
8,1,1,0,0,549,0
9,1,1,0,0,552,0
10,1,1,0,0,553,0
11,1,1,0,0,555,0
12,1,1,0,0,556,0
13,1,1,0,0,558,0
14,1,1,0,0,560,0
15,1,1,0,0,566,0
0,1,1,0,0,569,0
1,1,1,0,0,570,0
2,1,1,0,0,571,0
3,1,1,0,0,569,0
4,1,1,0,0,568,0
5,1,1,0,0,568,0
6,1,1,0,0,565,0
7,1,1,0,0,562,0
8,1,1,0,0,562,0
9,1,1,0,0,559,0
10,1,1,0,0,558,0
11,1,1,0,0,558,0
12,1,1,0,0,555,0
13,1,1,0,0,552,0
14,1,1,0,0,550,0
15,1,1,0,0,550,0
0,1,1,0,0,547,0
1,1,1,0,0,549,0
2,1,1,0,0,547,0
3,1,1,0,0,543,0
4,1,1,0,0,542,0
5,1,1,0,0,540,0
6,1,1,0,0,539,0
7,1,1,0,0,536,0
8,1,1,0,0,536,0
9,1,1,0,0,535,0
10,1,1,0,0,534,0
11,1,1,0,0,533,0
12,1,1,0,0,532,0
13,1,1,0,0,530,0
14,1,1,0,0,529,0
15,1,1,0,0,531,0
0,1,1,0,0,531,0
1,1,1,0,0,536,0
2,1,1,0,0,540,0
3,1,1,0,0,543,0
4,1,1,0,0,544,0
5,1,1,0,0,545,0
6,1,1,0,0,547,0
7,1,1,0,0,551,0
8,1,1,0,0,553,0
9,1,1,0,0,555,0
10,1,1,0,0,558,0
11,1,1,0,0,559,0
12,1,1,0,0,562,0
13,1,1,0,0,562,0
14,1,1,0,0,564,0
15,1,1,0,0,566,0
0,1,1,0,0,565,0
1,1,1,0,0,563,0
2,1,1,0,0,567,0
3,1,1,0,0,568,0
4,1,1,0,0,565,0
5,1,1,0,0,562,0
6,1,1,0,0,559,0
7,1,1,0,0,557,0
8,1,1,0,0,551,0
9,1,1,0,0,545,0
10,1,1,0,0,543,0
11,1,1,0,0,541,0
12,1,1,0,0,537,0
13,1,1,0,0,536,0
14,1,1,0,0,536,0
15,1,1,0,0,534,0
0,1,1,0,0,534,0
1,1,1,0,0,535,0
2,1,1,0,0,537,0
3,1,1,0,0,539,0
4,1,1,0,0,539,0
5,1,1,0,0,541,0
6,1,1,0,0,545,0
7,1,1,0,0,548,0
8,1,1,0,0,551,0
9,1,1,0,0,555,0
10,1,1,0,0,559,0
11,1,1,0,0,560,0
12,1,1,0,0,561,0
13,1,1,0,0,563,0
14,1,1,0,0,565,0
15,1,1,0,0,564,0
0,1,1,0,0,567,0
1,1,1,0,0,569,0
2,1,1,0,0,569,0
3,1,1,0,0,566,0
4,1,1,0,0,561,0
5,1,1,0,0,556,0
6,1,1,0,0,551,0
7,1,1,0,0,539,0
8,1,1,0,0,527,0
9,1,1,0,0,515,0
10,1,1,0,0,504,0
11,1,1,0,0,491,0
12,1,1,0,0,481,0
13,1,1,0,0,474,0
14,1,1,0,0,469,0
15,1,1,0,0,467,0
0,1,1,0,0,466,0
1,1,1,0,0,468,0
2,1,1,0,0,472,0
3,1,1,0,0,476,0
4,1,1,0,0,482,0
5,1,1,0,0,490,0
6,1,1,0,0,496,0
7,1,1,0,0,501,0
8,1,1,0,0,504,0
9,1,1,0,0,505,0
10,1,1,0,0,505,0
11,1,1,0,0,505,0
12,1,1,0,0,505,0
13,1,1,0,0,506,0
14,1,1,0,0,510,0
15,1,1,0,0,513,0
0,1,1,0,0,524,0
1,1,1,0,0,534,0
2,1,1,0,0,545,0
3,1,1,0,0,559,0
4,1,1,0,0,570,0
5,1,1,0,0,582,0
6,1,1,0,0,593,0
7,1,1,0,0,603,0
8,1,1,0,0,620,0
9,1,1,0,0,639,0
10,1,1,0,0,659,0
11,1,1,0,0,681,0
12,1,1,0,0,703,0
13,1,1,0,0,724,0
14,1,1,0,0,745,0
15,1,1,0,0,764,0
0,1,1,0,0,777,0
1,1,1,0,0,787,0
2,1,1,0,0,795,0
3,1,1,0,0,796,0
4,1,1,0,0,794,0
5,1,1,0,0,795,0
6,1,1,0,0,798,0
7,1,1,0,0,799,0
8,1,1,0,0,795,0
9,1,1,0,0,791,0
10,1,1,0,0,782,0
11,1,1,0,0,771,0
12,1,1,0,0,759,0
13,1,1,0,0,747,0
14,1,1,0,0,732,0
15,1,1,0,0,716,0
0,1,1,0,0,698,0
1,1,1,0,0,679,0
2,1,1,0,0,657,0
3,1,1,0,0,636,0
4,1,1,0,0,613,0
5,1,1,0,0,590,0
6,1,1,0,0,567,0
7,1,1,0,0,544,0
8,1,1,0,0,523,0
9,1,1,0,0,502,0
10,1,1,0,0,481,0
11,1,1,0,0,459,0
12,1,1,0,0,430,0
13,1,1,0,0,401,0
14,1,1,0,0,370,0
15,1,1,0,0,335,0
0,1,1,0,0,298,0
1,1,1,0,0,264,0
2,1,1,0,0,243,0
3,1,1,0,0,232,0
4,1,1,0,0,233,0
5,1,1,0,0,243,0
6,1,1,0,0,255,0
7,1,1,0,0,265,0
8,1,1,0,0,275,0
9,1,1,0,0,286,0
10,1,1,0,0,297,0
11,1,1,0,0,308,0
12,1,1,0,0,321,0
13,1,1,0,0,335,0
14,1,1,0,0,350,0
15,1,1,0,0,362,0
0,1,1,0,0,371,0
1,1,1,0,0,383,0
2,1,1,0,0,395,0
3,1,1,0,0,401,0
4,1,1,0,0,405,0
5,1,1,0,0,411,0
6,1,1,0,0,412,0
7,1,1,0,0,413,0
8,1,1,0,0,413,0
9,1,1,0,0,415,0
10,1,1,0,0,416,0
11,1,1,0,0,418,0
12,1,1,0,0,420,0
13,1,1,0,0,423,0
14,1,1,0,0,427,0
15,1,1,0,0,430,0
0,1,1,0,0,431,0
1,1,1,0,0,432,0
2,1,1,0,0,435,0
3,1,1,0,0,433,0
4,1,1,0,0,433,0
5,1,1,0,0,436,0
6,1,1,0,0,439,0
7,1,1,0,0,441,0
8,1,1,0,0,443,0
9,1,1,0,0,444,0
10,1,1,0,0,445,0
11,1,1,0,0,444,0
12,1,1,0,0,443,0
13,1,1,0,0,444,0
14,1,1,0,0,442,0
15,1,1,0,0,440,0
0,1,1,0,0,438,0
1,1,1,0,0,438,0
2,1,1,0,0,438,0
3,1,1,0,0,438,0
4,1,1,0,0,435,0
5,1,1,0,0,430,0
6,1,1,0,0,424,0
7,1,1,0,0,415,0
8,1,1,0,0,404,0
9,1,1,0,0,392,0
10,1,1,0,0,387,0
11,1,1,0,0,382,0
12,1,1,0,0,381,0
13,1,1,0,0,380,0
14,1,1,0,0,380,0
15,1,1,0,0,377,0
0,1,1,0,0,377,0
1,1,1,0,0,380,0
2,1,1,0,0,380,0
3,1,1,0,0,383,0
4,1,1,0,0,387,0
5,1,1,0,0,392,0
6,1,1,0,0,399,0
7,1,1,0,0,402,0
8,1,1,0,0,409,0
9,1,1,0,0,418,0
10,1,1,0,0,425,0
11,1,1,0,0,433,0
12,1,1,0,0,440,0
13,1,1,0,0,447,0
14,1,1,0,0,452,0
15,1,1,0,0,458,0
0,1,1,0,0,459,0
1,1,1,0,0,462,0
2,1,1,0,0,469,0
3,1,1,0,0,475,0
4,1,1,0,0,479,0
5,1,1,0,0,481,0
6,1,1,0,0,486,0
7,1,1,0,0,490,0
8,1,1,0,0,495,0
9,1,1,0,0,498,0
10,1,1,0,0,500,0
11,1,1,0,0,504,0
12,1,1,0,0,507,0
13,1,1,0,0,512,0
14,1,1,0,0,516,0
15,1,1,0,0,518,0
0,1,1,0,0,521,0
1,1,1,0,0,525,0
2,1,1,0,0,526,0
3,1,1,0,0,528,0
4,1,1,0,0,529,0
5,1,1,0,0,529,0
6,1,1,0,0,529,0
7,1,1,0,0,528,0
8,1,1,0,0,527,0
9,1,1,0,0,527,0
10,1,1,0,0,526,0
11,1,1,0,0,526,0
12,1,1,0,0,528,0
13,1,1,0,0,527,0
14,1,1,0,0,527,0
15,1,1,0,0,530,0
0,1,1,0,0,533,0
1,1,1,0,0,534,0
2,1,1,0,0,534,0
3,1,1,0,0,534,0
4,1,1,0,0,533,0
5,1,1,0,0,531,0
6,1,1,0,0,529,0
7,1,1,0,0,528,0
8,1,1,0,0,527,0
9,1,1,0,0,524,0
10,1,1,0,0,522,0
11,1,1,0,0,519,0
12,1,1,0,0,515,0
13,1,1,0,0,515,0
14,1,1,0,0,515,0
15,1,1,0,0,513,0
0,1,1,0,0,511,0
1,1,1,0,0,511,0
2,1,1,0,0,511,0
3,1,1,0,0,511,0
4,1,1,0,0,511,0
5,1,1,0,0,512,0
6,1,1,0,0,511,0
7,1,1,0,0,511,0
8,1,1,0,0,510,0
9,1,1,0,0,507,0
10,1,1,0,0,507,0
11,1,1,0,0,508,0
12,1,1,0,0,511,0
13,1,1,0,0,513,0
14,1,1,0,0,516,0
15,1,1,0,0,519,0
0,1,1,0,0,526,0
1,1,1,0,0,532,0
2,1,1,0,0,537,0
3,1,1,0,0,541,0
4,1,1,0,0,547,0
5,1,1,0,0,553,0
6,1,1,0,0,560,0
7,1,1,0,0,565,0
8,1,1,0,0,570,0
9,1,1,0,0,577,0
10,1,1,0,0,583,0
11,1,1,0,0,588,0
12,1,1,0,0,589,0
13,1,1,0,0,589,0
14,1,1,0,0,586,0
15,1,1,0,0,582,0
0,1,1,0,0,573,0
1,1,1,0,0,565,0
2,1,1,0,0,557,0
3,1,1,0,0,548,0
4,1,1,0,0,539,0
5,1,1,0,0,529,0
6,1,1,0,0,520,0
7,1,1,0,0,512,0
8,1,1,0,0,504,0
9,1,1,0,0,494,0
10,1,1,0,0,486,0
11,1,1,0,0,477,0
12,1,1,0,0,467,0
13,1,1,0,0,460,0
14,1,1,0,0,454,0
15,1,1,0,0,445,0
0,1,1,0,0,438,0
1,1,1,0,0,434,0
2,1,1,0,0,429,0
3,1,1,0,0,426,0
4,1,1,0,0,424,0
5,1,1,0,0,427,0
6,1,1,0,0,431,0
7,1,1,0,0,438,0
8,1,1,0,0,447,0
9,1,1,0,0,458,0
10,1,1,0,0,469,0
11,1,1,0,0,481,0
12,1,1,0,0,493,0
13,1,1,0,0,504,0
14,1,1,0,0,515,0
15,1,1,0,0,527,0
0,1,1,0,0,533,0
1,1,1,0,0,540,0
2,1,1,0,0,547,0
3,1,1,0,0,555,0
4,1,1,0,0,561,0
5,1,1,0,0,568,0
6,1,1,0,0,573,0
7,1,1,0,0,577,0
8,1,1,0,0,581,0
9,1,1,0,0,585,0
10,1,1,0,0,587,0
11,1,1,0,0,586,0
12,1,1,0,0,584,0
13,1,1,0,0,579,0
14,1,1,0,0,573,0
15,1,1,0,0,566,0
0,1,1,0,0,560,0
1,1,1,0,0,555,0
2,1,1,0,0,550,0
3,1,1,0,0,546,0
4,1,1,0,0,542,0
5,1,1,0,0,542,0
6,1,1,0,0,543,0
7,1,1,0,0,544,0
8,1,1,0,0,544,0
9,1,1,0,0,543,0
10,1,1,0,0,540,0
11,1,1,0,0,536,0
12,1,1,0,0,530,0
13,1,1,0,0,523,0
14,1,1,0,0,518,0
15,1,1,0,0,512,0
0,1,1,0,0,506,0
1,1,1,0,0,500,0
2,1,1,0,0,496,0
3,1,1,0,0,494,0
4,1,1,0,0,495,0
5,1,1,0,0,496,0
6,1,1,0,0,498,0
7,1,1,0,0,499,0
8,1,1,0,0,503,0
9,1,1,0,0,505,0
10,1,1,0,0,508,0
11,1,1,0,0,514,0
12,1,1,0,0,517,0
13,1,1,0,0,519,0
14,1,1,0,0,524,0
