0,1,2,3,4,5,6
0,1,1,0,0,508,0
1,1,1,0,0,508,0
2,1,1,0,0,506,0
3,1,1,0,0,504,0
4,1,1,0,0,504,0
5,1,1,0,0,503,0
6,1,1,0,0,502,0
7,1,1,0,0,502,0
8,1,1,0,0,502,0
9,1,1,0,0,502,0
10,1,1,0,0,502,0
11,1,1,0,0,502,0
12,1,1,0,0,504,0
13,1,1,0,0,505,0
14,1,1,0,0,508,0
15,1,1,0,0,509,0
0,1,1,0,0,510,0
1,1,1,0,0,511,0
2,1,1,0,0,512,0
3,1,1,0,0,512,0
4,1,1,0,0,513,0
5,1,1,0,0,513,0
6,1,1,0,0,515,0
7,1,1,0,0,514,0
8,1,1,0,0,514,0
9,1,1,0,0,513,0
10,1,1,0,0,513,0
11,1,1,0,0,513,0
12,1,1,0,0,513,0
13,1,1,0,0,513,0
14,1,1,0,0,513,0
15,1,1,0,0,513,0
0,1,1,0,0,513,0
1,1,1,0,0,515,0
2,1,1,0,0,515,0
3,1,1,0,0,517,0
4,1,1,0,0,518,0
5,1,1,0,0,518,0
6,1,1,0,0,518,0
7,1,1,0,0,519,0
8,1,1,0,0,519,0
9,1,1,0,0,519,0
10,1,1,0,0,518,0
11,1,1,0,0,517,0
12,1,1,0,0,516,0
13,1,1,0,0,515,0
14,1,1,0,0,513,0
15,1,1,0,0,514,0
0,1,1,0,0,513,0
1,1,1,0,0,512,0
2,1,1,0,0,513,0
3,1,1,0,0,515,0
4,1,1,0,0,516,0
5,1,1,0,0,517,0
6,1,1,0,0,518,0
7,1,1,0,0,518,0
8,1,1,0,0,518,0
9,1,1,0,0,518,0
10,1,1,0,0,519,0
11,1,1,0,0,520,0
12,1,1,0,0,520,0
13,1,1,0,0,520,0
14,1,1,0,0,519,0
15,1,1,0,0,518,0
0,1,1,0,0,516,0
1,1,1,0,0,515,0
2,1,1,0,0,514,0
3,1,1,0,0,513,0
4,1,1,0,0,511,0
5,1,1,0,0,511,0
6,1,1,0,0,511,0
7,1,1,0,0,512,0
8,1,1,0,0,512,0
9,1,1,0,0,514,0
10,1,1,0,0,515,0
11,1,1,0,0,516,0
12,1,1,0,0,516,0
13,1,1,0,0,516,0
14,1,1,0,0,516,0
15,1,1,0,0,518,0
0,1,1,0,0,517,0
1,1,1,0,0,517,0
2,1,1,0,0,516,0
3,1,1,0,0,514,0
4,1,1,0,0,513,0
5,1,1,0,0,512,0
6,1,1,0,0,512,0
7,1,1,0,0,512,0
8,1,1,0,0,511,0
9,1,1,0,0,510,0
10,1,1,0,0,511,0
11,1,1,0,0,511,0
12,1,1,0,0,511,0
13,1,1,0,0,512,0
14,1,1,0,0,513,0
15,1,1,0,0,513,0
0,1,1,0,0,513,0
1,1,1,0,0,514,0
2,1,1,0,0,514,0
3,1,1,0,0,514,0
4,1,1,0,0,514,0
5,1,1,0,0,513,0
6,1,1,0,0,513,0
7,1,1,0,0,513,0
8,1,1,0,0,512,0
9,1,1,0,0,511,0
10,1,1,0,0,510,0
11,1,1,0,0,508,0
12,1,1,0,0,504,0
13,1,1,0,0,502,0
14,1,1,0,0,499,0
15,1,1,0,0,496,0
0,1,1,0,0,493,0
1,1,1,0,0,488,0
2,1,1,0,0,484,0
3,1,1,0,0,480,0
4,1,1,0,0,476,0
5,1,1,0,0,473,0
6,1,1,0,0,470,0
7,1,1,0,0,466,0
8,1,1,0,0,464,0
9,1,1,0,0,461,0
10,1,1,0,0,460,0
11,1,1,0,0,460,0
12,1,1,0,0,458,0
13,1,1,0,0,456,0
14,1,1,0,0,455,0
15,1,1,0,0,454,0
0,1,1,0,0,453,0
1,1,1,0,0,453,0
2,1,1,0,0,457,0
3,1,1,0,0,461,0
4,1,1,0,0,467,0
5,1,1,0,0,476,0
6,1,1,0,0,487,0
7,1,1,0,0,499,0
8,1,1,0,0,512,0
9,1,1,0,0,524,0
10,1,1,0,0,535,0
11,1,1,0,0,546,0
12,1,1,0,0,555,0
13,1,1,0,0,566,0
14,1,1,0,0,580,0
15,1,1,0,0,596,0
0,1,1,0,0,614,0
1,1,1,0,0,633,0
2,1,1,0,0,652,0
3,1,1,0,0,671,0
4,1,1,0,0,688,0
5,1,1,0,0,703,0
6,1,1,0,0,715,0
7,1,1,0,0,724,0
8,1,1,0,0,729,0
9,1,1,0,0,733,0
10,1,1,0,0,737,0
11,1,1,0,0,741,0
12,1,1,0,0,746,0
13,1,1,0,0,748,0
14,1,1,0,0,747,0
15,1,1,0,0,741,0
0,1,1,0,0,732,0
1,1,1,0,0,722,0
2,1,1,0,0,710,0
3,1,1,0,0,697,0
4,1,1,0,0,683,0
5,1,1,0,0,668,0
6,1,1,0,0,653,0
7,1,1,0,0,639,0
8,1,1,0,0,622,0
9,1,1,0,0,604,0
10,1,1,0,0,587,0
11,1,1,0,0,570,0
12,1,1,0,0,554,0
13,1,1,0,0,541,0
14,1,1,0,0,529,0
15,1,1,0,0,520,0
0,1,1,0,0,512,0
1,1,1,0,0,504,0
2,1,1,0,0,496,0
3,1,1,0,0,489,0
4,1,1,0,0,483,0
5,1,1,0,0,479,0
6,1,1,0,0,474,0
7,1,1,0,0,470,0
8,1,1,0,0,468,0
9,1,1,0,0,466,0
10,1,1,0,0,466,0
11,1,1,0,0,466,0
12,1,1,0,0,465,0
13,1,1,0,0,465,0
14,1,1,0,0,465,0
15,1,1,0,0,466,0
0,1,1,0,0,468,0
1,1,1,0,0,470,0
2,1,1,0,0,471,0
3,1,1,0,0,471,0
4,1,1,0,0,472,0
5,1,1,0,0,473,0
6,1,1,0,0,473,0
7,1,1,0,0,473,0
8,1,1,0,0,473,0
9,1,1,0,0,472,0
10,1,1,0,0,472,0
11,1,1,0,0,470,0
12,1,1,0,0,469,0
13,1,1,0,0,467,0
14,1,1,0,0,466,0
15,1,1,0,0,466,0
0,1,1,0,0,465,0
1,1,1,0,0,465,0
2,1,1,0,0,464,0
3,1,1,0,0,463,0
4,1,1,0,0,464,0
5,1,1,0,0,464,0
6,1,1,0,0,465,0
7,1,1,0,0,465,0
8,1,1,0,0,466,0
9,1,1,0,0,465,0
10,1,1,0,0,465,0
11,1,1,0,0,466,0
12,1,1,0,0,467,0
13,1,1,0,0,467,0
14,1,1,0,0,466,0
15,1,1,0,0,466,0
0,1,1,0,0,464,0
1,1,1,0,0,463,0
2,1,1,0,0,463,0
3,1,1,0,0,463,0
4,1,1,0,0,463,0
5,1,1,0,0,462,0
6,1,1,0,0,462,0
7,1,1,0,0,463,0
8,1,1,0,0,463,0
9,1,1,0,0,465,0
10,1,1,0,0,466,0
11,1,1,0,0,467,0
12,1,1,0,0,467,0
13,1,1,0,0,467,0
14,1,1,0,0,467,0
15,1,1,0,0,467,0
0,1,1,0,0,467,0
1,1,1,0,0,467,0
2,1,1,0,0,465,0
3,1,1,0,0,464,0
4,1,1,0,0,463,0
5,1,1,0,0,461,0
6,1,1,0,0,460,0
7,1,1,0,0,461,0
8,1,1,0,0,462,0
9,1,1,0,0,461,0
10,1,1,0,0,460,0
11,1,1,0,0,461,0
12,1,1,0,0,461,0
13,1,1,0,0,463,0
14,1,1,0,0,464,0
15,1,1,0,0,466,0
0,1,1,0,0,467,0
1,1,1,0,0,468,0
2,1,1,0,0,469,0
3,1,1,0,0,470,0
4,1,1,0,0,470,0
5,1,1,0,0,470,0
6,1,1,0,0,470,0
7,1,1,0,0,469,0
8,1,1,0,0,470,0
9,1,1,0,0,468,0
10,1,1,0,0,468,0
11,1,1,0,0,468,0
12,1,1,0,0,467,0
13,1,1,0,0,468,0
14,1,1,0,0,468,0
15,1,1,0,0,470,0
0,1,1,0,0,471,0
1,1,1,0,0,471,0
2,1,1,0,0,472,0
3,1,1,0,0,474,0
4,1,1,0,0,475,0
5,1,1,0,0,476,0
6,1,1,0,0,476,0
7,1,1,0,0,477,0
8,1,1,0,0,478,0
9,1,1,0,0,479,0
10,1,1,0,0,479,0
11,1,1,0,0,479,0
12,1,1,0,0,479,0
13,1,1,0,0,477,0
14,1,1,0,0,476,0
15,1,1,0,0,475,0
0,1,1,0,0,475,0
1,1,1,0,0,474,0
2,1,1,0,0,475,0
3,1,1,0,0,476,0
4,1,1,0,0,476,0
5,1,1,0,0,478,0
6,1,1,0,0,479,0
7,1,1,0,0,480,0
8,1,1,0,0,481,0
9,1,1,0,0,482,0
10,1,1,0,0,482,0
11,1,1,0,0,483,0
12,1,1,0,0,483,0
13,1,1,0,0,483,0
14,1,1,0,0,483,0
15,1,1,0,0,482,0
0,1,1,0,0,483,0
1,1,1,0,0,482,0
2,1,1,0,0,482,0
3,1,1,0,0,481,0
4,1,1,0,0,481,0
5,1,1,0,0,481,0
6,1,1,0,0,481,0
7,1,1,0,0,483,0
8,1,1,0,0,484,0
9,1,1,0,0,484,0
10,1,1,0,0,486,0
11,1,1,0,0,487,0
12,1,1,0,0,488,0
13,1,1,0,0,489,0
14,1,1,0,0,490,0
15,1,1,0,0,491,0
0,1,1,0,0,491,0
1,1,1,0,0,492,0
2,1,1,0,0,492,0
3,1,1,0,0,491,0
4,1,1,0,0,491,0
5,1,1,0,0,489,0
6,1,1,0,0,488,0
7,1,1,0,0,489,0
8,1,1,0,0,488,0
9,1,1,0,0,488,0
10,1,1,0,0,487,0
11,1,1,0,0,488,0
12,1,1,0,0,489,0
13,1,1,0,0,490,0
14,1,1,0,0,492,0
15,1,1,0,0,493,0
0,1,1,0,0,492,0
1,1,1,0,0,493,0
2,1,1,0,0,493,0
3,1,1,0,0,493,0
4,1,1,0,0,492,0
5,1,1,0,0,492,0
6,1,1,0,0,491,0
7,1,1,0,0,490,0
8,1,1,0,0,489,0
9,1,1,0,0,488,0
10,1,1,0,0,487,0
11,1,1,0,0,487,0
12,1,1,0,0,486,0
13,1,1,0,0,486,0
14,1,1,0,0,486,0
15,1,1,0,0,486,0
0,1,1,0,0,486,0
1,1,1,0,0,486,0
2,1,1,0,0,487,0
3,1,1,0,0,487,0
4,1,1,0,0,487,0
5,1,1,0,0,487,0
6,1,1,0,0,487,0
7,1,1,0,0,488,0
8,1,1,0,0,488,0
9,1,1,0,0,487,0
10,1,1,0,0,486,0
11,1,1,0,0,485,0
12,1,1,0,0,484,0
13,1,1,0,0,483,0
14,1,1,0,0,481,0
15,1,1,0,0,480,0
0,1,1,0,0,479,0
1,1,1,0,0,478,0
2,1,1,0,0,479,0
3,1,1,0,0,479,0
4,1,1,0,0,479,0
5,1,1,0,0,480,0
6,1,1,0,0,480,0
7,1,1,0,0,481,0
8,1,1,0,0,481,0
9,1,1,0,0,482,0
10,1,1,0,0,482,0
11,1,1,0,0,483,0
12,1,1,0,0,483,0
13,1,1,0,0,483,0
14,1,1,0,0,482,0
15,1,1,0,0,481,0
0,1,1,0,0,481,0
1,1,1,0,0,480,0
2,1,1,0,0,478,0
3,1,1,0,0,478,0
4,1,1,0,0,477,0
5,1,1,0,0,477,0
6,1,1,0,0,478,0
7,1,1,0,0,478,0
8,1,1,0,0,479,0
9,1,1,0,0,481,0
10,1,1,0,0,483,0
11,1,1,0,0,484,0
12,1,1,0,0,485,0
13,1,1,0,0,486,0
14,1,1,0,0,486,0
15,1,1,0,0,488,0
0,1,1,0,0,490,0
1,1,1,0,0,491,0
2,1,1,0,0,492,0
3,1,1,0,0,492,0
4,1,1,0,0,492,0
5,1,1,0,0,492,0
6,1,1,0,0,492,0
7,1,1,0,0,493,0
8,1,1,0,0,494,0
9,1,1,0,0,496,0
10,1,1,0,0,497,0
11,1,1,0,0,499,0
12,1,1,0,0,500,0
13,1,1,0,0,502,0
14,1,1,0,0,505,0
15,1,1,0,0,507,0
0,1,1,0,0,509,0
1,1,1,0,0,511,0
2,1,1,0,0,512,0
3,1,1,0,0,515,0
4,1,1,0,0,516,0
5,1,1,0,0,516,0
6,1,1,0,0,516,0
7,1,1,0,0,518,0
8,1,1,0,0,519,0
9,1,1,0,0,519,0
10,1,1,0,0,521,0
11,1,1,0,0,522,0
12,1,1,0,0,523,0
13,1,1,0,0,525,0
14,1,1,0,0,527,0
15,1,1,0,0,528,0
0,1,1,0,0,530,0
1,1,1,0,0,532,0
2,1,1,0,0,534,0
3,1,1,0,0,536,0
4,1,1,0,0,538,0
5,1,1,0,0,540,0
6,1,1,0,0,541,0
7,1,1,0,0,542,0
8,1,1,0,0,543,0
9,1,1,0,0,544,0
10,1,1,0,0,544,0
11,1,1,0,0,544,0
12,1,1,0,0,544,0
13,1,1,0,0,544,0
14,1,1,0,0,543,0
15,1,1,0,0,543,0
0,1,1,0,0,543,0
1,1,1,0,0,543,0
2,1,1,0,0,543,0
3,1,1,0,0,543,0
4,1,1,0,0,544,0
5,1,1,0,0,546,0
6,1,1,0,0,547,0
7,1,1,0,0,548,0
8,1,1,0,0,550,0
9,1,1,0,0,551,0
10,1,1,0,0,551,0
11,1,1,0,0,552,0
12,1,1,0,0,552,0
13,1,1,0,0,552,0
14,1,1,0,0,552,0
15,1,1,0,0,552,0
0,1,1,0,0,551,0
1,1,1,0,0,550,0
2,1,1,0,0,549,0
3,1,1,0,0,549,0
4,1,1,0,0,548,0
5,1,1,0,0,548,0
6,1,1,0,0,548,0
7,1,1,0,0,548,0
8,1,1,0,0,548,0
9,1,1,0,0,549,0
10,1,1,0,0,550,0
11,1,1,0,0,551,0
12,1,1,0,0,552,0
13,1,1,0,0,552,0
14,1,1,0,0,552,0
15,1,1,0,0,553,0
0,1,1,0,0,552,0
1,1,1,0,0,552,0
2,1,1,0,0,551,0
3,1,1,0,0,550,0
4,1,1,0,0,550,0
5,1,1,0,0,548,0
6,1,1,0,0,547,0
7,1,1,0,0,546,0
8,1,1,0,0,545,0
9,1,1,0,0,545,0
10,1,1,0,0,544,0
11,1,1,0,0,543,0
12,1,1,0,0,544,0
13,1,1,0,0,544,0
14,1,1,0,0,546,0
15,1,1,0,0,546,0
0,1,1,0,0,544,0
1,1,1,0,0,544,0
2,1,1,0,0,543,0
3,1,1,0,0,543,0
4,1,1,0,0,543,0
5,1,1,0,0,542,0
6,1,1,0,0,540,0
7,1,1,0,0,538,0
8,1,1,0,0,537,0
9,1,1,0,0,534,0
10,1,1,0,0,533,0
11,1,1,0,0,532,0
12,1,1,0,0,532,0
13,1,1,0,0,533,0
14,1,1,0,0,533,0
15,1,1,0,0,533,0
0,1,1,0,0,533,0
1,1,1,0,0,534,0
2,1,1,0,0,535,0
3,1,1,0,0,536,0
4,1,1,0,0,537,0
5,1,1,0,0,539,0
6,1,1,0,0,539,0
7,1,1,0,0,539,0
8,1,1,0,0,539,0
9,1,1,0,0,539,0
10,1,1,0,0,537,0
11,1,1,0,0,537,0
12,1,1,0,0,537,0
13,1,1,0,0,535,0
14,1,1,0,0,533,0
15,1,1,0,0,533,0
0,1,1,0,0,532,0
1,1,1,0,0,533,0
2,1,1,0,0,533,0
3,1,1,0,0,533,0
4,1,1,0,0,533,0
5,1,1,0,0,534,0
6,1,1,0,0,535,0
7,1,1,0,0,536,0
8,1,1,0,0,537,0
9,1,1,0,0,536,0
10,1,1,0,0,536,0
11,1,1,0,0,536,0
12,1,1,0,0,536,0
13,1,1,0,0,534,0
14,1,1,0,0,532,0
15,1,1,0,0,531,0
0,1,1,0,0,528,0
1,1,1,0,0,527,0
2,1,1,0,0,527,0
3,1,1,0,0,526,0
4,1,1,0,0,525,0
5,1,1,0,0,524,0
6,1,1,0,0,523,0
7,1,1,0,0,522,0
8,1,1,0,0,522,0
9,1,1,0,0,523,0
10,1,1,0,0,523,0
11,1,1,0,0,523,0
12,1,1,0,0,522,0
13,1,1,0,0,522,0
14,1,1,0,0,523,0
15,1,1,0,0,522,0
0,1,1,0,0,522,0
1,1,1,0,0,521,0
2,1,1,0,0,520,0
3,1,1,0,0,520,0
4,1,1,0,0,519,0
5,1,1,0,0,518,0
6,1,1,0,0,517,0
7,1,1,0,0,517,0
8,1,1,0,0,516,0
9,1,1,0,0,516,0
10,1,1,0,0,516,0
11,1,1,0,0,515,0
12,1,1,0,0,516,0
13,1,1,0,0,516,0
14,1,1,0,0,517,0
15,1,1,0,0,518,0
0,1,1,0,0,519,0
1,1,1,0,0,519,0
2,1,1,0,0,519,0
3,1,1,0,0,519,0
4,1,1,0,0,518,0
5,1,1,0,0,517,0
6,1,1,0,0,515,0
7,1,1,0,0,515,0
8,1,1,0,0,514,0
9,1,1,0,0,513,0
10,1,1,0,0,512,0
11,1,1,0,0,512,0
12,1,1,0,0,512,0
13,1,1,0,0,512,0
14,1,1,0,0,511,0
15,1,1,0,0,511,0
0,1,1,0,0,511,0
1,1,1,0,0,512,0
2,1,1,0,0,513,0
3,1,1,0,0,514,0
4,1,1,0,0,516,0
5,1,1,0,0,517,0
6,1,1,0,0,517,0
7,1,1,0,0,518,0
8,1,1,0,0,518,0
9,1,1,0,0,518,0
10,1,1,0,0,517,0
11,1,1,0,0,516,0
12,1,1,0,0,515,0
13,1,1,0,0,513,0
14,1,1,0,0,512,0
15,1,1,0,0,512,0
0,1,1,0,0,512,0
1,1,1,0,0,511,0
2,1,1,0,0,511,0
3,1,1,0,0,511,0
4,1,1,0,0,512,0
5,1,1,0,0,513,0
6,1,1,0,0,514,0
7,1,1,0,0,515,0
8,1,1,0,0,517,0
9,1,1,0,0,516,0
10,1,1,0,0,516,0
11,1,1,0,0,516,0
12,1,1,0,0,516,0
13,1,1,0,0,516,0
14,1,1,0,0,515,0
15,1,1,0,0,515,0
0,1,1,0,0,514,0
1,1,1,0,0,513,0
2,1,1,0,0,513,0
3,1,1,0,0,512,0
4,1,1,0,0,512,0
5,1,1,0,0,512,0
6,1,1,0,0,512,0
7,1,1,0,0,512,0
8,1,1,0,0,513,0
9,1,1,0,0,515,0
10,1,1,0,0,517,0
11,1,1,0,0,518,0
12,1,1,0,0,518,0
13,1,1,0,0,519,0
14,1,1,0,0,519,0
15,1,1,0,0,519,0
0,1,1,0,0,519,0
1,1,1,0,0,518,0
2,1,1,0,0,517,0
3,1,1,0,0,517,0
4,1,1,0,0,516,0
5,1,1,0,0,515,0
6,1,1,0,0,514,0
7,1,1,0,0,513,0
8,1,1,0,0,512,0
9,1,1,0,0,512,0
10,1,1,0,0,512,0
11,1,1,0,0,513,0
12,1,1,0,0,512,0
13,1,1,0,0,513,0
14,1,1,0,0,514,0
15,1,1,0,0,515,0
0,1,1,0,0,515,0
1,1,1,0,0,515,0
2,1,1,0,0,515,0
3,1,1,0,0,516,0
4,1,1,0,0,516,0
5,1,1,0,0,514,0
6,1,1,0,0,513,0
7,1,1,0,0,513,0
8,1,1,0,0,512,0
9,1,1,0,0,511,0
10,1,1,0,0,509,0
11,1,1,0,0,509,0
12,1,1,0,0,508,0
13,1,1,0,0,508,0
14,1,1,0,0,509,0
15,1,1,0,0,509,0
0,1,1,0,0,510,0
1,1,1,0,0,511,0
2,1,1,0,0,512,0
3,1,1,0,0,512,0
4,1,1,0,0,513,0
5,1,1,0,0,513,0
6,1,1,0,0,512,0
7,1,1,0,0,513,0
8,1,1,0,0,513,0
9,1,1,0,0,512,0
10,1,1,0,0,511,0
11,1,1,0,0,510,0
12,1,1,0,0,510,0
13,1,1,0,0,509,0
14,1,1,0,0,508,0
15,1,1,0,0,508,0
0,1,1,0,0,507,0
1,1,1,0,0,507,0
2,1,1,0,0,508,0
3,1,1,0,0,507,0
4,1,1,0,0,507,0
5,1,1,0,0,508,0
6,1,1,0,0,510,0
7,1,1,0,0,510,0
8,1,1,0,0,511,0
9,1,1,0,0,511,0
10,1,1,0,0,512,0
11,1,1,0,0,513,0
12,1,1,0,0,514,0
13,1,1,0,0,513,0
14,1,1,0,0,512,0
15,1,1,0,0,512,0
0,1,1,0,0,512,0
1,1,1,0,0,511,0
2,1,1,0,0,512,0
3,1,1,0,0,512,0
4,1,1,0,0,512,0
5,1,1,0,0,511,0
6,1,1,0,0,512,0
7,1,1,0,0,512,0
8,1,1,0,0,512,0
9,1,1,0,0,513,0
10,1,1,0,0,514,0
11,1,1,0,0,515,0
12,1,1,0,0,515,0
13,1,1,0,0,516,0
14,1,1,0,0,515,0
15,1,1,0,0,516,0
0,1,1,0,0,516,0
1,1,1,0,0,516,0
2,1,1,0,0,515,0
3,1,1,0,0,514,0
4,1,1,0,0,513,0
5,1,1,0,0,512,0
6,1,1,0,0,512,0
7,1,1,0,0,512,0
8,1,1,0,0,511,0
9,1,1,0,0,510,0
10,1,1,0,0,511,0
11,1,1,0,0,511,0
12,1,1,0,0,511,0
13,1,1,0,0,511,0
14,1,1,0,0,512,0
15,1,1,0,0,513,0
0,1,1,0,0,514,0
1,1,1,0,0,515,0
2,1,1,0,0,515,0
3,1,1,0,0,515,0
4,1,1,0,0,515,0
5,1,1,0,0,516,0
6,1,1,0,0,515,0
7,1,1,0,0,514,0
8,1,1,0,0,514,0
9,1,1,0,0,512,0
10,1,1,0,0,511,0
11,1,1,0,0,511,0
12,1,1,0,0,511,0
13,1,1,0,0,511,0
14,1,1,0,0,511,0
15,1,1,0,0,511,0
0,1,1,0,0,511,0
1,1,1,0,0,512,0
2,1,1,0,0,513,0
3,1,1,0,0,515,0
4,1,1,0,0,515,0
5,1,1,0,0,515,0
6,1,1,0,0,515,0
7,1,1,0,0,515,0
8,1,1,0,0,515,0
9,1,1,0,0,514,0
10,1,1,0,0,513,0
11,1,1,0,0,513,0
12,1,1,0,0,512,0
13,1,1,0,0,511,0
14,1,1,0,0,510,0
15,1,1,0,0,509,0
0,1,1,0,0,509,0
1,1,1,0,0,509,0
2,1,1,0,0,509,0
3,1,1,0,0,509,0
4,1,1,0,0,510,0
5,1,1,0,0,511,0
6,1,1,0,0,512,0
7,1,1,0,0,513,0
8,1,1,0,0,514,0
9,1,1,0,0,515,0
10,1,1,0,0,515,0
11,1,1,0,0,515,0
12,1,1,0,0,515,0
13,1,1,0,0,515,0
14,1,1,0,0,515,0
15,1,1,0,0,514,0
0,1,1,0,0,513,0
1,1,1,0,0,512,0
2,1,1,0,0,511,0
3,1,1,0,0,512,0
4,1,1,0,0,512,0
5,1,1,0,0,513,0
6,1,1,0,0,513,0
7,1,1,0,0,513,0
8,1,1,0,0,513,0
9,1,1,0,0,514,0
10,1,1,0,0,516,0
11,1,1,0,0,517,0
12,1,1,0,0,518,0
13,1,1,0,0,519,0
14,1,1,0,0,518,0
15,1,1,0,0,516,0
0,1,1,0,0,516,0
1,1,1,0,0,515,0
2,1,1,0,0,513,0
3,1,1,0,0,512,0
4,1,1,0,0,510,0
5,1,1,0,0,508,0
6,1,1,0,0,507,0
7,1,1,0,0,506,0
8,1,1,0,0,504,0
9,1,1,0,0,503,0
10,1,1,0,0,503,0
11,1,1,0,0,504,0
12,1,1,0,0,504,0
13,1,1,0,0,505,0
14,1,1,0,0,507,0
15,1,1,0,0,508,0
0,1,1,0,0,509,0
1,1,1,0,0,510,0
2,1,1,0,0,509,0
3,1,1,0,0,510,0
4,1,1,0,0,510,0
5,1,1,0,0,510,0
6,1,1,0,0,509,0
7,1,1,0,0,508,0
8,1,1,0,0,508,0
9,1,1,0,0,507,0
10,1,1,0,0,505,0
11,1,1,0,0,504,0
12,1,1,0,0,503,0
13,1,1,0,0,502,0
14,1,1,0,0,502,0
15,1,1,0,0,502,0
0,1,1,0,0,503,0
1,1,1,0,0,504,0
2,1,1,0,0,505,0
3,1,1,0,0,505,0
4,1,1,0,0,507,0
5,1,1,0,0,508,0
6,1,1,0,0,507,0
7,1,1,0,0,508,0
8,1,1,0,0,509,0
9,1,1,0,0,509,0
10,1,1,0,0,509,0
11,1,1,0,0,508,0
12,1,1,0,0,507,0
13,1,1,0,0,506,0
14,1,1,0,0,507,0
15,1,1,0,0,507,0
0,1,1,0,0,508,0
1,1,1,0,0,508,0
2,1,1,0,0,508,0
3,1,1,0,0,510,0
4,1,1,0,0,511,0
5,1,1,0,0,512,0
6,1,1,0,0,513,0
7,1,1,0,0,514,0
8,1,1,0,0,515,0
9,1,1,0,0,515,0
10,1,1,0,0,515,0
11,1,1,0,0,515,0
12,1,1,0,0,515,0
13,1,1,0,0,516,0
14,1,1,0,0,515,0
15,1,1,0,0,515,0
0,1,1,0,0,515,0
1,1,1,0,0,513,0
2,1,1,0,0,513,0
3,1,1,0,0,512,0
4,1,1,0,0,512,0
5,1,1,0,0,511,0
6,1,1,0,0,511,0
7,1,1,0,0,512,0
8,1,1,0,0,512,0
9,1,1,0,0,513,0
10,1,1,0,0,515,0
11,1,1,0,0,516,0
12,1,1,0,0,518,0
13,1,1,0,0,518,0
14,1,1,0,0,518,0
15,1,1,0,0,519,0
0,1,1,0,0,519,0
1,1,1,0,0,519,0
2,1,1,0,0,518,0
3,1,1,0,0,516,0
4,1,1,0,0,516,0
5,1,1,0,0,514,0
6,1,1,0,0,514,0
7,1,1,0,0,513,0
8,1,1,0,0,513,0
9,1,1,0,0,512,0
10,1,1,0,0,512,0
11,1,1,0,0,512,0
12,1,1,0,0,512,0
13,1,1,0,0,513,0
14,1,1,0,0,514,0
15,1,1,0,0,516,0
0,1,1,0,0,516,0
1,1,1,0,0,517,0
2,1,1,0,0,517,0
3,1,1,0,0,517,0
4,1,1,0,0,517,0
5,1,1,0,0,517,0
6,1,1,0,0,516,0
7,1,1,0,0,516,0
8,1,1,0,0,515,0
9,1,1,0,0,514,0
10,1,1,0,0,514,0
11,1,1,0,0,513,0
12,1,1,0,0,512,0
13,1,1,0,0,512,0
14,1,1,0,0,512,0
15,1,1,0,0,513,0
0,1,1,0,0,513,0
1,1,1,0,0,514,0
2,1,1,0,0,515,0
3,1,1,0,0,515,0
4,1,1,0,0,516,0
5,1,1,0,0,516,0
6,1,1,0,0,515,0
7,1,1,0,0,517,0
8,1,1,0,0,517,0
9,1,1,0,0,516,0
10,1,1,0,0,515,0
11,1,1,0,0,514,0
12,1,1,0,0,513,0
13,1,1,0,0,511,0
14,1,1,0,0,510,0
15,1,1,0,0,510,0
0,1,1,0,0,508,0
1,1,1,0,0,508,0
2,1,1,0,0,508,0
3,1,1,0,0,507,0
4,1,1,0,0,507,0
5,1,1,0,0,508,0
6,1,1,0,0,507,0
7,1,1,0,0,505,0
8,1,1,0,0,503,0
9,1,1,0,0,500,0
10,1,1,0,0,495,0
11,1,1,0,0,491,0
12,1,1,0,0,484,0
13,1,1,0,0,478,0
14,1,1,0,0,471,0
15,1,1,0,0,465,0
0,1,1,0,0,460,0
1,1,1,0,0,455,0
2,1,1,0,0,452,0
3,1,1,0,0,451,0
4,1,1,0,0,449,0
5,1,1,0,0,450,0
6,1,1,0,0,449,0
7,1,1,0,0,448,0
8,1,1,0,0,447,0
9,1,1,0,0,447,0
10,1,1,0,0,448,0
11,1,1,0,0,449,0
12,1,1,0,0,451,0
13,1,1,0,0,454,0
14,1,1,0,0,457,0
15,1,1,0,0,465,0
0,1,1,0,0,475,0
1,1,1,0,0,483,0
2,1,1,0,0,490,0
3,1,1,0,0,498,0
4,1,1,0,0,505,0
5,1,1,0,0,512,0
6,1,1,0,0,519,0
7,1,1,0,0,529,0
8,1,1,0,0,539,0
9,1,1,0,0,552,0
10,1,1,0,0,567,0
11,1,1,0,0,584,0
12,1,1,0,0,604,0
13,1,1,0,0,627,0
14,1,1,0,0,652,0
15,1,1,0,0,673,0
0,1,1,0,0,692,0
1,1,1,0,0,706,0
2,1,1,0,0,714,0
3,1,1,0,0,718,0
4,1,1,0,0,718,0
5,1,1,0,0,719,0
6,1,1,0,0,721,0
7,1,1,0,0,723,0
8,1,1,0,0,723,0
9,1,1,0,0,719,0
10,1,1,0,0,712,0
11,1,1,0,0,702,0
12,1,1,0,0,691,0
13,1,1,0,0,678,0
14,1,1,0,0,665,0
15,1,1,0,0,651,0
0,1,1,0,0,636,0
1,1,1,0,0,621,0
2,1,1,0,0,606,0
3,1,1,0,0,590,0
4,1,1,0,0,574,0
5,1,1,0,0,559,0
6,1,1,0,0,545,0
7,1,1,0,0,534,0
8,1,1,0,0,524,0
9,1,1,0,0,514,0
10,1,1,0,0,505,0
11,1,1,0,0,497,0
12,1,1,0,0,491,0
13,1,1,0,0,486,0
14,1,1,0,0,480,0
15,1,1,0,0,478,0
0,1,1,0,0,476,0
1,1,1,0,0,476,0
2,1,1,0,0,476,0
3,1,1,0,0,476,0
4,1,1,0,0,477,0
5,1,1,0,0,479,0
6,1,1,0,0,480,0
7,1,1,0,0,480,0
8,1,1,0,0,480,0
9,1,1,0,0,480,0
10,1,1,0,0,480,0
11,1,1,0,0,480,0
12,1,1,0,0,480,0
13,1,1,0,0,479,0
14,1,1,0,0,478,0
15,1,1,0,0,476,0
0,1,1,0,0,473,0
1,1,1,0,0,471,0
2,1,1,0,0,470,0
3,1,1,0,0,468,0
4,1,1,0,0,467,0
5,1,1,0,0,466,0
6,1,1,0,0,465,0
7,1,1,0,0,465,0
8,1,1,0,0,464,0
9,1,1,0,0,465,0
10,1,1,0,0,466,0
11,1,1,0,0,466,0
12,1,1,0,0,467,0
13,1,1,0,0,467,0
14,1,1,0,0,466,0
15,1,1,0,0,466,0
0,1,1,0,0,467,0
1,1,1,0,0,467,0
2,1,1,0,0,466,0
3,1,1,0,0,466,0
4,1,1,0,0,465,0
5,1,1,0,0,464,0
6,1,1,0,0,463,0
7,1,1,0,0,464,0
8,1,1,0,0,464,0
9,1,1,0,0,464,0
10,1,1,0,0,465,0
11,1,1,0,0,467,0
12,1,1,0,0,468,0
13,1,1,0,0,470,0
14,1,1,0,0,472,0
15,1,1,0,0,473,0
0,1,1,0,0,475,0
1,1,1,0,0,476,0
2,1,1,0,0,476,0
3,1,1,0,0,476,0
4,1,1,0,0,476,0
5,1,1,0,0,476,0
6,1,1,0,0,475,0
7,1,1,0,0,474,0
8,1,1,0,0,472,0
9,1,1,0,0,471,0
10,1,1,0,0,470,0
11,1,1,0,0,469,0
12,1,1,0,0,467,0
13,1,1,0,0,465,0
14,1,1,0,0,465,0
15,1,1,0,0,465,0
0,1,1,0,0,465,0
1,1,1,0,0,466,0
2,1,1,0,0,467,0
3,1,1,0,0,468,0
4,1,1,0,0,468,0
5,1,1,0,0,469,0
6,1,1,0,0,469,0
7,1,1,0,0,470,0
8,1,1,0,0,471,0
9,1,1,0,0,472,0
10,1,1,0,0,472,0
11,1,1,0,0,472,0
12,1,1,0,0,472,0
13,1,1,0,0,471,0
14,1,1,0,0,471,0
15,1,1,0,0,471,0
0,1,1,0,0,471,0
1,1,1,0,0,471,0
2,1,1,0,0,471,0
3,1,1,0,0,472,0
4,1,1,0,0,473,0
5,1,1,0,0,475,0
6,1,1,0,0,476,0
7,1,1,0,0,477,0
8,1,1,0,0,479,0
9,1,1,0,0,480,0
10,1,1,0,0,480,0
11,1,1,0,0,480,0
12,1,1,0,0,481,0
13,1,1,0,0,482,0
14,1,1,0,0,481,0
15,1,1,0,0,481,0
0,1,1,0,0,481,0
1,1,1,0,0,480,0
2,1,1,0,0,479,0
3,1,1,0,0,479,0
4,1,1,0,0,480,0
5,1,1,0,0,479,0
6,1,1,0,0,479,0
7,1,1,0,0,480,0
8,1,1,0,0,480,0
9,1,1,0,0,481,0
10,1,1,0,0,483,0
11,1,1,0,0,484,0
12,1,1,0,0,484,0
13,1,1,0,0,484,0
14,1,1,0,0,484,0
15,1,1,0,0,485,0
0,1,1,0,0,485,0
1,1,1,0,0,485,0
2,1,1,0,0,484,0
3,1,1,0,0,484,0
4,1,1,0,0,483,0
5,1,1,0,0,482,0
6,1,1,0,0,481,0
7,1,1,0,0,480,0
8,1,1,0,0,480,0
9,1,1,0,0,480,0
10,1,1,0,0,480,0
11,1,1,0,0,481,0
12,1,1,0,0,482,0
13,1,1,0,0,483,0
14,1,1,0,0,485,0
15,1,1,0,0,487,0
0,1,1,0,0,487,0
1,1,1,0,0,489,0
2,1,1,0,0,491,0
3,1,1,0,0,491,0
4,1,1,0,0,492,0
5,1,1,0,0,492,0
6,1,1,0,0,492,0
7,1,1,0,0,492,0
8,1,1,0,0,492,0
9,1,1,0,0,491,0
10,1,1,0,0,489,0
11,1,1,0,0,489,0
12,1,1,0,0,488,0
13,1,1,0,0,489,0
14,1,1,0,0,489,0
15,1,1,0,0,490,0
0,1,1,0,0,490,0
1,1,1,0,0,492,0
2,1,1,0,0,493,0
3,1,1,0,0,494,0
4,1,1,0,0,495,0
5,1,1,0,0,496,0
6,1,1,0,0,496,0
7,1,1,0,0,496,0
8,1,1,0,0,496,0
9,1,1,0,0,496,0
10,1,1,0,0,494,0
11,1,1,0,0,493,0
12,1,1,0,0,492,0
13,1,1,0,0,491,0
14,1,1,0,0,490,0
15,1,1,0,0,490,0
0,1,1,0,0,489,0
1,1,1,0,0,488,0
2,1,1,0,0,488,0
3,1,1,0,0,488,0
4,1,1,0,0,489,0
5,1,1,0,0,489,0
6,1,1,0,0,490,0
7,1,1,0,0,491,0
8,1,1,0,0,491,0
9,1,1,0,0,492,0
10,1,1,0,0,492,0
11,1,1,0,0,492,0
12,1,1,0,0,492,0
13,1,1,0,0,491,0
14,1,1,0,0,489,0
15,1,1,0,0,488,0
0,1,1,0,0,487,0
1,1,1,0,0,486,0
2,1,1,0,0,485,0
3,1,1,0,0,484,0
4,1,1,0,0,483,0
5,1,1,0,0,483,0
6,1,1,0,0,482,0
7,1,1,0,0,482,0
8,1,1,0,0,482,0
9,1,1,0,0,483,0
10,1,1,0,0,484,0
11,1,1,0,0,484,0
12,1,1,0,0,486,0
13,1,1,0,0,487,0
14,1,1,0,0,486,0
15,1,1,0,0,487,0
0,1,1,0,0,487,0
1,1,1,0,0,487,0
2,1,1,0,0,487,0
3,1,1,0,0,486,0
4,1,1,0,0,485,0
5,1,1,0,0,483,0
6,1,1,0,0,483,0
7,1,1,0,0,483,0
8,1,1,0,0,482,0
9,1,1,0,0,481,0
10,1,1,0,0,481,0
11,1,1,0,0,481,0
12,1,1,0,0,482,0
13,1,1,0,0,483,0
14,1,1,0,0,486,0
15,1,1,0,0,487,0
0,1,1,0,0,489,0
1,1,1,0,0,491,0
2,1,1,0,0,491,0
3,1,1,0,0,492,0
4,1,1,0,0,493,0
5,1,1,0,0,494,0
6,1,1,0,0,494,0
7,1,1,0,0,494,0
8,1,1,0,0,494,0
9,1,1,0,0,492,0
10,1,1,0,0,493,0
11,1,1,0,0,494,0
12,1,1,0,0,494,0
13,1,1,0,0,494,0
14,1,1,0,0,496,0
15,1,1,0,0,497,0
0,1,1,0,0,498,0
1,1,1,0,0,500,0
2,1,1,0,0,503,0
3,1,1,0,0,504,0
4,1,1,0,0,506,0
5,1,1,0,0,508,0
6,1,1,0,0,510,0
7,1,1,0,0,512,0
8,1,1,0,0,512,0
9,1,1,0,0,513,0
10,1,1,0,0,513,0
11,1,1,0,0,514,0
12,1,1,0,0,515,0
13,1,1,0,0,515,0
14,1,1,0,0,515,0
15,1,1,0,0,516,0
0,1,1,0,0,517,0
1,1,1,0,0,518,0
2,1,1,0,0,519,0
3,1,1,0,0,521,0
4,1,1,0,0,524,0
5,1,1,0,0,526,0
6,1,1,0,0,528,0
7,1,1,0,0,530,0
8,1,1,0,0,531,0
9,1,1,0,0,533,0
10,1,1,0,0,535,0
11,1,1,0,0,536,0
12,1,1,0,0,537,0
13,1,1,0,0,539,0
14,1,1,0,0,539,0
15,1,1,0,0,538,0
0,1,1,0,0,539,0
1,1,1,0,0,539,0
2,1,1,0,0,539,0
3,1,1,0,0,538,0
4,1,1,0,0,538,0
5,1,1,0,0,538,0
6,1,1,0,0,539,0
7,1,1,0,0,541,0
8,1,1,0,0,542,0
9,1,1,0,0,543,0
10,1,1,0,0,545,0
11,1,1,0,0,547,0
12,1,1,0,0,547,0
13,1,1,0,0,549,0
14,1,1,0,0,550,0
15,1,1,0,0,550,0
0,1,1,0,0,550,0
1,1,1,0,0,549,0
2,1,1,0,0,549,0
3,1,1,0,0,548,0
4,1,1,0,0,548,0
5,1,1,0,0,547,0
6,1,1,0,0,545,0
7,1,1,0,0,545,0
8,1,1,0,0,544,0
9,1,1,0,0,544,0
10,1,1,0,0,544,0
11,1,1,0,0,544,0
12,1,1,0,0,544,0
13,1,1,0,0,545,0
14,1,1,0,0,547,0
15,1,1,0,0,547,0
0,1,1,0,0,547,0
1,1,1,0,0,547,0
2,1,1,0,0,548,0
3,1,1,0,0,548,0
4,1,1,0,0,548,0
5,1,1,0,0,548,0
6,1,1,0,0,547,0
7,1,1,0,0,546,0
8,1,1,0,0,545,0
9,1,1,0,0,543,0
10,1,1,0,0,543,0
11,1,1,0,0,543,0
12,1,1,0,0,542,0
13,1,1,0,0,541,0
14,1,1,0,0,541,0
15,1,1,0,0,541,0
0,1,1,0,0,542,0
1,1,1,0,0,542,0
2,1,1,0,0,543,0
3,1,1,0,0,543,0
4,1,1,0,0,544,0
5,1,1,0,0,544,0
6,1,1,0,0,543,0
7,1,1,0,0,544,0
8,1,1,0,0,543,0
9,1,1,0,0,543,0
10,1,1,0,0,541,0
11,1,1,0,0,540,0
12,1,1,0,0,539,0
13,1,1,0,0,537,0
14,1,1,0,0,537,0
15,1,1,0,0,537,0
0,1,1,0,0,536,0
1,1,1,0,0,535,0
2,1,1,0,0,534,0
3,1,1,0,0,534,0
4,1,1,0,0,534,0
5,1,1,0,0,534,0
6,1,1,0,0,535,0
7,1,1,0,0,534,0
8,1,1,0,0,535,0
9,1,1,0,0,535,0
10,1,1,0,0,535,0
11,1,1,0,0,535,0
12,1,1,0,0,534,0
13,1,1,0,0,534,0
14,1,1,0,0,534,0
15,1,1,0,0,534,0
0,1,1,0,0,534,0
1,1,1,0,0,532,0
2,1,1,0,0,531,0
3,1,1,0,0,531,0
4,1,1,0,0,530,0
5,1,1,0,0,530,0
6,1,1,0,0,530,0
7,1,1,0,0,531,0
8,1,1,0,0,531,0
9,1,1,0,0,533,0
10,1,1,0,0,534,0
11,1,1,0,0,535,0
12,1,1,0,0,536,0
13,1,1,0,0,537,0
14,1,1,0,0,536,0
15,1,1,0,0,537,0
0,1,1,0,0,538,0
1,1,1,0,0,537,0
2,1,1,0,0,537,0
3,1,1,0,0,536,0
4,1,1,0,0,535,0
5,1,1,0,0,534,0
6,1,1,0,0,532,0
7,1,1,0,0,530,0
8,1,1,0,0,529,0
9,1,1,0,0,529,0
10,1,1,0,0,528,0
11,1,1,0,0,528,0
12,1,1,0,0,528,0
13,1,1,0,0,529,0
14,1,1,0,0,530,0
15,1,1,0,0,529,0
0,1,1,0,0,529,0
1,1,1,0,0,529,0
2,1,1,0,0,528,0
3,1,1,0,0,528,0
4,1,1,0,0,527,0
5,1,1,0,0,526,0
6,1,1,0,0,524,0
7,1,1,0,0,523,0
8,1,1,0,0,521,0
9,1,1,0,0,520,0
10,1,1,0,0,519,0
11,1,1,0,0,518,0
12,1,1,0,0,517,0
13,1,1,0,0,516,0
14,1,1,0,0,515,0
15,1,1,0,0,515,0
0,1,1,0,0,515,0
1,1,1,0,0,516,0
2,1,1,0,0,518,0
3,1,1,0,0,519,0
4,1,1,0,0,519,0
5,1,1,0,0,520,0
6,1,1,0,0,519,0
7,1,1,0,0,520,0
8,1,1,0,0,520,0
9,1,1,0,0,521,0
10,1,1,0,0,521,0
11,1,1,0,0,519,0
12,1,1,0,0,519,0
13,1,1,0,0,518,0
14,1,1,0,0,516,0
15,1,1,0,0,516,0
0,1,1,0,0,516,0
1,1,1,0,0,515,0
2,1,1,0,0,515,0
3,1,1,0,0,515,0
4,1,1,0,0,515,0
5,1,1,0,0,515,0
6,1,1,0,0,517,0
7,1,1,0,0,518,0
8,1,1,0,0,519,0
9,1,1,0,0,519,0
10,1,1,0,0,519,0
11,1,1,0,0,519,0
12,1,1,0,0,519,0
13,1,1,0,0,519,0
14,1,1,0,0,519,0
15,1,1,0,0,518,0
0,1,1,0,0,518,0
1,1,1,0,0,516,0
2,1,1,0,0,515,0
3,1,1,0,0,514,0
4,1,1,0,0,514,0
5,1,1,0,0,513,0
6,1,1,0,0,513,0
7,1,1,0,0,513,0
8,1,1,0,0,514,0
9,1,1,0,0,515,0
10,1,1,0,0,515,0
11,1,1,0,0,515,0
12,1,1,0,0,516,0
13,1,1,0,0,516,0
14,1,1,0,0,516,0
15,1,1,0,0,516,0
0,1,1,0,0,516,0
1,1,1,0,0,515,0
2,1,1,0,0,514,0
3,1,1,0,0,513,0
4,1,1,0,0,512,0
5,1,1,0,0,512,0
6,1,1,0,0,512,0
7,1,1,0,0,511,0
8,1,1,0,0,511,0
9,1,1,0,0,511,0
10,1,1,0,0,511,0
11,1,1,0,0,511,0
12,1,1,0,0,512,0
13,1,1,0,0,513,0
14,1,1,0,0,515,0
15,1,1,0,0,515,0
0,1,1,0,0,515,0
1,1,1,0,0,516,0
2,1,1,0,0,516,0
3,1,1,0,0,516,0
4,1,1,0,0,517,0
5,1,1,0,0,516,0
6,1,1,0,0,515,0
7,1,1,0,0,514,0
8,1,1,0,0,513,0
9,1,1,0,0,512,0
10,1,1,0,0,511,0
11,1,1,0,0,511,0
12,1,1,0,0,511,0
13,1,1,0,0,510,0
14,1,1,0,0,510,0
15,1,1,0,0,510,0
0,1,1,0,0,511,0
1,1,1,0,0,512,0
2,1,1,0,0,513,0
3,1,1,0,0,514,0
4,1,1,0,0,515,0
5,1,1,0,0,516,0
6,1,1,0,0,516,0
7,1,1,0,0,517,0
8,1,1,0,0,517,0
9,1,1,0,0,516,0
10,1,1,0,0,515,0
11,1,1,0,0,515,0
12,1,1,0,0,514,0
13,1,1,0,0,513,0
14,1,1,0,0,511,0
15,1,1,0,0,511,0
0,1,1,0,0,511,0
1,1,1,0,0,510,0
2,1,1,0,0,511,0
3,1,1,0,0,511,0
4,1,1,0,0,511,0
5,1,1,0,0,511,0
6,1,1,0,0,512,0
7,1,1,0,0,513,0
8,1,1,0,0,513,0
9,1,1,0,0,514,0
10,1,1,0,0,514,0
11,1,1,0,0,514,0
12,1,1,0,0,514,0
13,1,1,0,0,513,0
14,1,1,0,0,512,0
15,1,1,0,0,511,0
0,1,1,0,0,510,0
1,1,1,0,0,508,0
2,1,1,0,0,508,0
3,1,1,0,0,507,0
4,1,1,0,0,506,0
5,1,1,0,0,505,0
6,1,1,0,0,506,0
7,1,1,0,0,506,0
8,1,1,0,0,506,0
9,1,1,0,0,507,0
10,1,1,0,0,508,0
11,1,1,0,0,508,0
12,1,1,0,0,508,0
13,1,1,0,0,508,0
14,1,1,0,0,508,0
15,1,1,0,0,508,0
0,1,1,0,0,508,0
1,1,1,0,0,508,0
2,1,1,0,0,507,0
3,1,1,0,0,505,0
4,1,1,0,0,504,0
5,1,1,0,0,504,0
6,1,1,0,0,504,0
7,1,1,0,0,504,0
8,1,1,0,0,504,0
9,1,1,0,0,504,0
10,1,1,0,0,504,0
11,1,1,0,0,504,0
12,1,1,0,0,504,0
13,1,1,0,0,505,0
14,1,1,0,0,507,0
15,1,1,0,0,508,0
0,1,1,0,0,510,0
1,1,1,0,0,510,0
2,1,1,0,0,511,0
3,1,1,0,0,511,0
4,1,1,0,0,511,0
5,1,1,0,0,511,0
6,1,1,0,0,511,0
7,1,1,0,0,511,0
8,1,1,0,0,511,0
9,1,1,0,0,510,0
10,1,1,0,0,510,0
11,1,1,0,0,510,0
12,1,1,0,0,510,0
13,1,1,0,0,509,0
14,1,1,0,0,509,0
15,1,1,0,0,510,0
0,1,1,0,0,510,0
1,1,1,0,0,511,0
2,1,1,0,0,512,0
3,1,1,0,0,513,0
4,1,1,0,0,514,0
5,1,1,0,0,515,0
6,1,1,0,0,514,0
7,1,1,0,0,515,0
8,1,1,0,0,515,0
9,1,1,0,0,515,0
10,1,1,0,0,514,0
11,1,1,0,0,513,0
12,1,1,0,0,512,0
13,1,1,0,0,511,0
14,1,1,0,0,510,0
15,1,1,0,0,509,0
0,1,1,0,0,508,0
1,1,1,0,0,508,0
2,1,1,0,0,508,0
3,1,1,0,0,508,0
4,1,1,0,0,508,0
5,1,1,0,0,510,0
6,1,1,0,0,511,0
7,1,1,0,0,512,0
8,1,1,0,0,513,0
9,1,1,0,0,514,0
10,1,1,0,0,514,0
11,1,1,0,0,514,0
12,1,1,0,0,515,0
13,1,1,0,0,514,0
14,1,1,0,0,513,0
15,1,1,0,0,513,0
0,1,1,0,0,513,0
1,1,1,0,0,512,0
2,1,1,0,0,511,0
3,1,1,0,0,511,0
4,1,1,0,0,510,0
5,1,1,0,0,509,0
6,1,1,0,0,508,0
7,1,1,0,0,509,0
8,1,1,0,0,510,0
9,1,1,0,0,510,0
10,1,1,0,0,511,0
11,1,1,0,0,511,0
12,1,1,0,0,511,0
13,1,1,0,0,512,0
14,1,1,0,0,512,0
15,1,1,0,0,512,0
0,1,1,0,0,512,0
1,1,1,0,0,512,0
2,1,1,0,0,511,0
3,1,1,0,0,511,0
4,1,1,0,0,510,0
5,1,1,0,0,508,0
6,1,1,0,0,508,0
7,1,1,0,0,507,0
8,1,1,0,0,507,0
9,1,1,0,0,507,0
10,1,1,0,0,507,0
11,1,1,0,0,507,0
12,1,1,0,0,507,0
13,1,1,0,0,508,0
14,1,1,0,0,509,0
15,1,1,0,0,509,0
0,1,1,0,0,510,0
1,1,1,0,0,510,0
2,1,1,0,0,511,0
3,1,1,0,0,511,0
4,1,1,0,0,511,0
5,1,1,0,0,511,0
6,1,1,0,0,510,0
7,1,1,0,0,509,0
8,1,1,0,0,508,0
9,1,1,0,0,508,0
10,1,1,0,0,507,0
11,1,1,0,0,506,0
12,1,1,0,0,506,0
13,1,1,0,0,506,0
14,1,1,0,0,506,0
15,1,1,0,0,507,0
0,1,1,0,0,507,0
1,1,1,0,0,508,0
2,1,1,0,0,510,0
3,1,1,0,0,511,0
4,1,1,0,0,512,0
5,1,1,0,0,512,0
6,1,1,0,0,513,0
7,1,1,0,0,513,0
8,1,1,0,0,514,0
9,1,1,0,0,514,0
10,1,1,0,0,514,0
11,1,1,0,0,513,0
12,1,1,0,0,512,0
13,1,1,0,0,511,0
14,1,1,0,0,510,0
15,1,1,0,0,510,0
0,1,1,0,0,510,0
1,1,1,0,0,509,0
2,1,1,0,0,508,0
3,1,1,0,0,508,0
4,1,1,0,0,509,0
5,1,1,0,0,510,0
6,1,1,0,0,511,0
7,1,1,0,0,512,0
8,1,1,0,0,512,0
9,1,1,0,0,513,0
10,1,1,0,0,514,0
11,1,1,0,0,514,0
12,1,1,0,0,515,0
13,1,1,0,0,515,0
14,1,1,0,0,514,0
15,1,1,0,0,513,0
0,1,1,0,0,512,0
1,1,1,0,0,511,0
2,1,1,0,0,511,0
3,1,1,0,0,510,0
4,1,1,0,0,509,0
5,1,1,0,0,509,0
6,1,1,0,0,508,0
7,1,1,0,0,510,0
8,1,1,0,0,511,0
9,1,1,0,0,511,0
10,1,1,0,0,511,0
11,1,1,0,0,512,0
12,1,1,0,0,513,0
13,1,1,0,0,513,0
14,1,1,0,0,513,0
15,1,1,0,0,513,0
0,1,1,0,0,514,0
1,1,1,0,0,513,0
2,1,1,0,0,512,0
3,1,1,0,0,511,0
4,1,1,0,0,510,0
5,1,1,0,0,508,0
6,1,1,0,0,507,0
7,1,1,0,0,507,0
8,1,1,0,0,506,0
9,1,1,0,0,506,0
10,1,1,0,0,506,0
11,1,1,0,0,506,0
12,1,1,0,0,507,0
13,1,1,0,0,508,0
14,1,1,0,0,508,0
15,1,1,0,0,509,0
0,1,1,0,0,510,0
1,1,1,0,0,510,0
2,1,1,0,0,510,0
3,1,1,0,0,510,0
4,1,1,0,0,511,0
5,1,1,0,0,511,0
6,1,1,0,0,511,0
7,1,1,0,0,511,0
8,1,1,0,0,510,0
9,1,1,0,0,509,0
10,1,1,0,0,508,0
11,1,1,0,0,507,0
12,1,1,0,0,506,0
13,1,1,0,0,505,0
14,1,1,0,0,506,0
15,1,1,0,0,506,0
0,1,1,0,0,506,0
1,1,1,0,0,508,0
2,1,1,0,0,509,0
3,1,1,0,0,510,0
4,1,1,0,0,510,0
5,1,1,0,0,510,0
6,1,1,0,0,511,0
7,1,1,0,0,511,0
8,1,1,0,0,512,0
9,1,1,0,0,512,0
10,1,1,0,0,511,0
11,1,1,0,0,510,0
12,1,1,0,0,509,0
13,1,1,0,0,508,0
14,1,1,0,0,507,0
15,1,1,0,0,507,0
0,1,1,0,0,506,0
1,1,1,0,0,505,0
2,1,1,0,0,506,0
3,1,1,0,0,506,0
4,1,1,0,0,506,0
5,1,1,0,0,508,0
6,1,1,0,0,509,0
7,1,1,0,0,510,0
8,1,1,0,0,511,0
9,1,1,0,0,512,0
10,1,1,0,0,512,0
11,1,1,0,0,512,0
12,1,1,0,0,513,0
13,1,1,0,0,513,0
14,1,1,0,0,512,0
15,1,1,0,0,511,0
0,1,1,0,0,510,0
1,1,1,0,0,508,0
2,1,1,0,0,507,0
3,1,1,0,0,506,0
4,1,1,0,0,506,0
5,1,1,0,0,506,0
6,1,1,0,0,507,0
7,1,1,0,0,507,0
8,1,1,0,0,507,0
9,1,1,0,0,508,0
10,1,1,0,0,510,0
11,1,1,0,0,511,0
12,1,1,0,0,512,0
13,1,1,0,0,512,0
14,1,1,0,0,512,0
15,1,1,0,0,512,0
0,1,1,0,0,512,0
1,1,1,0,0,512,0
2,1,1,0,0,511,0
3,1,1,0,0,511,0
4,1,1,0,0,510,0
5,1,1,0,0,509,0
6,1,1,0,0,509,0
7,1,1,0,0,508,0
8,1,1,0,0,507,0
9,1,1,0,0,507,0
10,1,1,0,0,507,0
11,1,1,0,0,507,0
12,1,1,0,0,507,0
13,1,1,0,0,508,0
14,1,1,0,0,509,0
15,1,1,0,0,509,0
0,1,1,0,0,510,0
1,1,1,0,0,511,0
2,1,1,0,0,511,0
3,1,1,0,0,512,0
4,1,1,0,0,512,0
5,1,1,0,0,512,0
6,1,1,0,0,510,0
7,1,1,0,0,510,0
8,1,1,0,0,510,0
9,1,1,0,0,508,0
10,1,1,0,0,508,0
11,1,1,0,0,508,0
12,1,1,0,0,507,0
13,1,1,0,0,507,0
14,1,1,0,0,506,0
15,1,1,0,0,507,0
0,1,1,0,0,508,0
1,1,1,0,0,509,0
2,1,1,0,0,510,0
3,1,1,0,0,510,0
4,1,1,0,0,511,0
5,1,1,0,0,512,0
6,1,1,0,0,512,0
7,1,1,0,0,513,0
8,1,1,0,0,514,0
9,1,1,0,0,514,0
10,1,1,0,0,513,0
11,1,1,0,0,512,0
12,1,1,0,0,511,0
13,1,1,0,0,511,0
14,1,1,0,0,510,0
15,1,1,0,0,509,0
0,1,1,0,0,508,0
1,1,1,0,0,508,0
2,1,1,0,0,509,0
3,1,1,0,0,509,0
4,1,1,0,0,509,0
5,1,1,0,0,510,0
6,1,1,0,0,511,0
7,1,1,0,0,512,0
8,1,1,0,0,512,0
9,1,1,0,0,512,0
10,1,1,0,0,512,0
11,1,1,0,0,512,0
12,1,1,0,0,512,0
13,1,1,0,0,512,0
14,1,1,0,0,511,0
15,1,1,0,0,510,0
0,1,1,0,0,510,0
1,1,1,0,0,509,0
2,1,1,0,0,508,0
3,1,1,0,0,508,0
4,1,1,0,0,507,0
5,1,1,0,0,506,0
6,1,1,0,0,505,0
7,1,1,0,0,506,0
8,1,1,0,0,506,0
9,1,1,0,0,507,0
10,1,1,0,0,508,0
11,1,1,0,0,510,0
12,1,1,0,0,512,0
13,1,1,0,0,512,0
14,1,1,0,0,512,0
15,1,1,0,0,513,0
0,1,1,0,0,513,0
1,1,1,0,0,513,0
2,1,1,0,0,512,0
3,1,1,0,0,512,0
4,1,1,0,0,512,0
5,1,1,0,0,511,0
6,1,1,0,0,511,0
7,1,1,0,0,511,0
8,1,1,0,0,511,0
9,1,1,0,0,511,0
10,1,1,0,0,511,0
11,1,1,0,0,512,0
12,1,1,0,0,512,0
13,1,1,0,0,513,0
14,1,1,0,0,515,0
15,1,1,0,0,516,0
0,1,1,0,0,517,0
1,1,1,0,0,518,0
2,1,1,0,0,518,0
3,1,1,0,0,518,0
4,1,1,0,0,517,0
5,1,1,0,0,516,0
6,1,1,0,0,515,0
7,1,1,0,0,513,0
8,1,1,0,0,513,0
9,1,1,0,0,511,0
10,1,1,0,0,511,0
11,1,1,0,0,511,0
12,1,1,0,0,510,0
13,1,1,0,0,510,0
14,1,1,0,0,511,0
15,1,1,0,0,511,0
0,1,1,0,0,511,0
1,1,1,0,0,512,0
2,1,1,0,0,514,0
3,1,1,0,0,515,0
4,1,1,0,0,516,0
5,1,1,0,0,518,0
6,1,1,0,0,519,0
7,1,1,0,0,520,0
8,1,1,0,0,520,0
9,1,1,0,0,520,0
10,1,1,0,0,520,0
11,1,1,0,0,519,0
12,1,1,0,0,519,0
13,1,1,0,0,517,0
14,1,1,0,0,515,0
15,1,1,0,0,515,0
0,1,1,0,0,513,0
1,1,1,0,0,512,0
2,1,1,0,0,512,0
3,1,1,0,0,511,0
4,1,1,0,0,512,0
5,1,1,0,0,512,0
6,1,1,0,0,513,0
7,1,1,0,0,512,0
8,1,1,0,0,512,0
9,1,1,0,0,511,0
10,1,1,0,0,509,0
11,1,1,0,0,508,0
12,1,1,0,0,508,0
13,1,1,0,0,507,0
14,1,1,0,0,506,0
15,1,1,0,0,505,0
0,1,1,0,0,505,0
1,1,1,0,0,504,0
2,1,1,0,0,503,0
3,1,1,0,0,503,0
4,1,1,0,0,503,0
5,1,1,0,0,503,0
6,1,1,0,0,504,0
7,1,1,0,0,504,0
8,1,1,0,0,504,0
9,1,1,0,0,505,0
10,1,1,0,0,507,0
11,1,1,0,0,507,0
12,1,1,0,0,508,0
13,1,1,0,0,509,0
14,1,1,0,0,509,0
15,1,1,0,0,510,0
0,1,1,0,0,510,0
1,1,1,0,0,511,0
2,1,1,0,0,510,0
3,1,1,0,0,509,0
4,1,1,0,0,508,0
5,1,1,0,0,507,0
6,1,1,0,0,507,0
7,1,1,0,0,507,0
8,1,1,0,0,505,0
9,1,1,0,0,505,0
10,1,1,0,0,506,0
11,1,1,0,0,507,0
12,1,1,0,0,508,0
13,1,1,0,0,510,0
14,1,1,0,0,511,0
15,1,1,0,0,512,0
0,1,1,0,0,514,0
1,1,1,0,0,516,0
2,1,1,0,0,518,0
3,1,1,0,0,519,0
4,1,1,0,0,519,0
5,1,1,0,0,519,0
6,1,1,0,0,518,0
7,1,1,0,0,518,0
8,1,1,0,0,517,0
9,1,1,0,0,516,0
10,1,1,0,0,515,0
11,1,1,0,0,515,0
12,1,1,0,0,515,0
13,1,1,0,0,515,0
14,1,1,0,0,514,0
15,1,1,0,0,514,0
0,1,1,0,0,515,0
1,1,1,0,0,515,0
2,1,1,0,0,516,0
3,1,1,0,0,517,0
4,1,1,0,0,518,0
5,1,1,0,0,518,0
6,1,1,0,0,518,0
7,1,1,0,0,519,0
8,1,1,0,0,519,0
9,1,1,0,0,520,0
10,1,1,0,0,519,0
11,1,1,0,0,518,0
12,1,1,0,0,518,0
13,1,1,0,0,516,0
14,1,1,0,0,515,0
15,1,1,0,0,515,0
0,1,1,0,0,514,0
1,1,1,0,0,513,0
2,1,1,0,0,513,0
3,1,1,0,0,513,0
4,1,1,0,0,514,0
5,1,1,0,0,515,0
6,1,1,0,0,515,0
7,1,1,0,0,516,0
8,1,1,0,0,517,0
9,1,1,0,0,518,0
10,1,1,0,0,517,0
11,1,1,0,0,518,0
12,1,1,0,0,517,0
13,1,1,0,0,517,0
14,1,1,0,0,516,0
15,1,1,0,0,516,0
0,1,1,0,0,515,0
1,1,1,0,0,514,0
2,1,1,0,0,513,0
3,1,1,0,0,513,0
4,1,1,0,0,513,0
5,1,1,0,0,512,0
6,1,1,0,0,512,0
7,1,1,0,0,512,0
8,1,1,0,0,512,0
9,1,1,0,0,513,0
10,1,1,0,0,514,0
11,1,1,0,0,515,0
12,1,1,0,0,515,0
13,1,1,0,0,515,0
14,1,1,0,0,515,0
15,1,1,0,0,516,0
0,1,1,0,0,516,0
1,1,1,0,0,516,0
2,1,1,0,0,515,0
3,1,1,0,0,514,0
4,1,1,0,0,513,0
5,1,1,0,0,512,0
6,1,1,0,0,511,0
7,1,1,0,0,511,0
8,1,1,0,0,511,0
9,1,1,0,0,511,0
10,1,1,0,0,511,0
11,1,1,0,0,511,0
12,1,1,0,0,511,0
13,1,1,0,0,512,0
14,1,1,0,0,512,0
15,1,1,0,0,513,0
0,1,1,0,0,514,0
1,1,1,0,0,514,0
2,1,1,0,0,515,0
3,1,1,0,0,515,0
4,1,1,0,0,514,0
5,1,1,0,0,512,0
6,1,1,0,0,510,0
7,1,1,0,0,506,0
8,1,1,0,0,501,0
9,1,1,0,0,495,0
10,1,1,0,0,488,0
11,1,1,0,0,480,0
12,1,1,0,0,472,0
13,1,1,0,0,466,0
14,1,1,0,0,461,0
15,1,1,0,0,455,0
0,1,1,0,0,452,0
1,1,1,0,0,450,0
2,1,1,0,0,449,0
3,1,1,0,0,449,0
4,1,1,0,0,450,0
5,1,1,0,0,450,0
6,1,1,0,0,449,0
7,1,1,0,0,448,0
8,1,1,0,0,447,0
9,1,1,0,0,446,0
10,1,1,0,0,445,0
11,1,1,0,0,445,0
12,1,1,0,0,446,0
13,1,1,0,0,449,0
14,1,1,0,0,454,0
15,1,1,0,0,461,0
0,1,1,0,0,470,0
1,1,1,0,0,478,0
2,1,1,0,0,487,0
3,1,1,0,0,496,0
4,1,1,0,0,507,0
5,1,1,0,0,520,0
6,1,1,0,0,531,0
7,1,1,0,0,543,0
8,1,1,0,0,557,0
9,1,1,0,0,574,0
10,1,1,0,0,593,0
11,1,1,0,0,615,0
12,1,1,0,0,638,0
13,1,1,0,0,663,0
14,1,1,0,0,688,0
15,1,1,0,0,709,0
0,1,1,0,0,724,0
1,1,1,0,0,730,0
2,1,1,0,0,732,0
3,1,1,0,0,732,0
4,1,1,0,0,730,0
5,1,1,0,0,730,0
6,1,1,0,0,731,0
7,1,1,0,0,732,0
8,1,1,0,0,729,0
9,1,1,0,0,721,0
10,1,1,0,0,711,0
11,1,1,0,0,700,0
12,1,1,0,0,688,0
13,1,1,0,0,674,0
14,1,1,0,0,659,0
15,1,1,0,0,644,0
0,1,1,0,0,626,0
1,1,1,0,0,608,0
2,1,1,0,0,590,0
3,1,1,0,0,574,0
4,1,1,0,0,559,0
5,1,1,0,0,545,0
6,1,1,0,0,531,0
7,1,1,0,0,521,0
8,1,1,0,0,512,0
9,1,1,0,0,505,0
10,1,1,0,0,499,0
11,1,1,0,0,495,0
12,1,1,0,0,492,0
13,1,1,0,0,490,0
14,1,1,0,0,489,0
15,1,1,0,0,489,0
0,1,1,0,0,489,0
1,1,1,0,0,489,0
2,1,1,0,0,488,0
3,1,1,0,0,489,0
4,1,1,0,0,489,0
5,1,1,0,0,489,0
6,1,1,0,0,488,0
7,1,1,0,0,486,0
8,1,1,0,0,485,0
9,1,1,0,0,482,0
10,1,1,0,0,481,0
11,1,1,0,0,479,0
12,1,1,0,0,477,0
13,1,1,0,0,476,0
14,1,1,0,0,474,0
15,1,1,0,0,473,0
0,1,1,0,0,473,0
1,1,1,0,0,472,0
2,1,1,0,0,472,0
3,1,1,0,0,472,0
4,1,1,0,0,472,0
5,1,1,0,0,472,0
6,1,1,0,0,471,0
7,1,1,0,0,471,0
8,1,1,0,0,470,0
9,1,1,0,0,470,0
10,1,1,0,0,468,0
11,1,1,0,0,467,0
12,1,1,0,0,467,0
13,1,1,0,0,465,0
14,1,1,0,0,464,0
15,1,1,0,0,464,0
0,1,1,0,0,463,0
1,1,1,0,0,463,0
2,1,1,0,0,464,0
3,1,1,0,0,465,0
4,1,1,0,0,465,0
5,1,1,0,0,467,0
6,1,1,0,0,469,0
7,1,1,0,0,470,0
8,1,1,0,0,472,0
9,1,1,0,0,474,0
10,1,1,0,0,475,0
11,1,1,0,0,477,0
12,1,1,0,0,477,0
13,1,1,0,0,478,0
14,1,1,0,0,477,0
15,1,1,0,0,477,0
0,1,1,0,0,476,0
1,1,1,0,0,476,0
2,1,1,0,0,475,0
3,1,1,0,0,475,0
4,1,1,0,0,473,0
5,1,1,0,0,472,0
6,1,1,0,0,472,0
7,1,1,0,0,471,0
8,1,1,0,0,471,0
9,1,1,0,0,471,0
10,1,1,0,0,471,0
11,1,1,0,0,471,0
12,1,1,0,0,472,0
13,1,1,0,0,472,0
14,1,1,0,0,472,0
15,1,1,0,0,472,0
0,1,1,0,0,472,0
1,1,1,0,0,472,0
2,1,1,0,0,472,0
3,1,1,0,0,471,0
4,1,1,0,0,472,0
5,1,1,0,0,471,0
6,1,1,0,0,471,0
7,1,1,0,0,471,0
8,1,1,0,0,470,0
9,1,1,0,0,470,0
10,1,1,0,0,471,0
11,1,1,0,0,472,0
12,1,1,0,0,473,0
13,1,1,0,0,475,0
14,1,1,0,0,476,0
15,1,1,0,0,478,0
0,1,1,0,0,479,0
1,1,1,0,0,480,0
2,1,1,0,0,480,0
3,1,1,0,0,481,0
4,1,1,0,0,482,0
5,1,1,0,0,482,0
6,1,1,0,0,482,0
7,1,1,0,0,481,0
8,1,1,0,0,480,0
9,1,1,0,0,479,0
10,1,1,0,0,479,0
11,1,1,0,0,479,0
12,1,1,0,0,478,0
13,1,1,0,0,478,0
14,1,1,0,0,478,0
15,1,1,0,0,478,0
0,1,1,0,0,479,0
1,1,1,0,0,480,0
2,1,1,0,0,481,0
3,1,1,0,0,482,0
4,1,1,0,0,483,0
5,1,1,0,0,484,0
6,1,1,0,0,485,0
7,1,1,0,0,486,0
8,1,1,0,0,486,0
9,1,1,0,0,487,0
10,1,1,0,0,487,0
11,1,1,0,0,486,0
12,1,1,0,0,486,0
13,1,1,0,0,484,0
14,1,1,0,0,483,0
15,1,1,0,0,483,0
0,1,1,0,0,483,0
1,1,1,0,0,483,0
2,1,1,0,0,483,0
3,1,1,0,0,483,0
4,1,1,0,0,483,0
5,1,1,0,0,485,0
6,1,1,0,0,487,0
7,1,1,0,0,488,0
8,1,1,0,0,490,0
9,1,1,0,0,490,0
10,1,1,0,0,491,0
11,1,1,0,0,491,0
12,1,1,0,0,491,0
13,1,1,0,0,492,0
14,1,1,0,0,491,0
15,1,1,0,0,491,0
0,1,1,0,0,491,0
1,1,1,0,0,490,0
2,1,1,0,0,489,0
3,1,1,0,0,489,0
4,1,1,0,0,489,0
5,1,1,0,0,489,0
6,1,1,0,0,490,0
7,1,1,0,0,490,0
8,1,1,0,0,491,0
9,1,1,0,0,492,0
10,1,1,0,0,493,0
11,1,1,0,0,494,0
12,1,1,0,0,494,0
13,1,1,0,0,496,0
14,1,1,0,0,496,0
15,1,1,0,0,496,0
0,1,1,0,0,496,0
1,1,1,0,0,496,0
2,1,1,0,0,495,0
3,1,1,0,0,494,0
4,1,1,0,0,493,0
5,1,1,0,0,492,0
6,1,1,0,0,491,0
7,1,1,0,0,490,0
8,1,1,0,0,489,0
9,1,1,0,0,488,0
10,1,1,0,0,487,0
11,1,1,0,0,487,0
12,1,1,0,0,487,0
13,1,1,0,0,488,0
14,1,1,0,0,489,0
15,1,1,0,0,491,0
0,1,1,0,0,491,0
1,1,1,0,0,491,0
2,1,1,0,0,491,0
3,1,1,0,0,491,0
4,1,1,0,0,491,0
5,1,1,0,0,491,0
6,1,1,0,0,490,0
7,1,1,0,0,489,0
8,1,1,0,0,488,0
9,1,1,0,0,486,0
10,1,1,0,0,486,0
11,1,1,0,0,485,0
12,1,1,0,0,484,0
13,1,1,0,0,483,0
14,1,1,0,0,482,0
15,1,1,0,0,482,0
0,1,1,0,0,481,0
1,1,1,0,0,482,0
2,1,1,0,0,483,0
3,1,1,0,0,483,0
4,1,1,0,0,483,0
5,1,1,0,0,484,0
6,1,1,0,0,484,0
7,1,1,0,0,484,0
8,1,1,0,0,484,0
9,1,1,0,0,484,0
10,1,1,0,0,483,0
11,1,1,0,0,483,0
12,1,1,0,0,483,0
13,1,1,0,0,482,0
14,1,1,0,0,481,0
15,1,1,0,0,480,0
0,1,1,0,0,480,0
1,1,1,0,0,479,0
2,1,1,0,0,478,0
3,1,1,0,0,479,0
4,1,1,0,0,479,0
5,1,1,0,0,480,0
6,1,1,0,0,482,0
7,1,1,0,0,483,0
8,1,1,0,0,484,0
9,1,1,0,0,485,0
10,1,1,0,0,485,0
11,1,1,0,0,486,0
12,1,1,0,0,487,0
13,1,1,0,0,487,0
14,1,1,0,0,486,0
15,1,1,0,0,486,0
0,1,1,0,0,486,0
1,1,1,0,0,486,0
2,1,1,0,0,486,0
3,1,1,0,0,487,0
4,1,1,0,0,487,0
5,1,1,0,0,487,0
6,1,1,0,0,487,0
7,1,1,0,0,489,0
8,1,1,0,0,491,0
9,1,1,0,0,492,0
10,1,1,0,0,495,0
11,1,1,0,0,496,0
12,1,1,0,0,499,0
13,1,1,0,0,500,0
14,1,1,0,0,501,0
15,1,1,0,0,502,0
0,1,1,0,0,504,0
1,1,1,0,0,504,0
2,1,1,0,0,504,0
3,1,1,0,0,504,0
4,1,1,0,0,505,0
5,1,1,0,0,505,0
6,1,1,0,0,505,0
7,1,1,0,0,506,0
8,1,1,0,0,507,0
9,1,1,0,0,508,0
10,1,1,0,0,509,0
11,1,1,0,0,511,0
12,1,1,0,0,512,0
13,1,1,0,0,514,0
14,1,1,0,0,517,0
15,1,1,0,0,519,0
0,1,1,0,0,520,0
1,1,1,0,0,523,0
2,1,1,0,0,523,0
3,1,1,0,0,525,0
4,1,1,0,0,527,0
5,1,1,0,0,527,0
6,1,1,0,0,528,0
7,1,1,0,0,527,0
8,1,1,0,0,528,0
9,1,1,0,0,527,0
10,1,1,0,0,527,0
11,1,1,0,0,527,0
12,1,1,0,0,527,0
13,1,1,0,0,528,0
14,1,1,0,0,528,0
15,1,1,0,0,530,0
0,1,1,0,0,531,0
1,1,1,0,0,533,0
2,1,1,0,0,536,0
3,1,1,0,0,537,0
4,1,1,0,0,539,0
5,1,1,0,0,539,0
6,1,1,0,0,540,0
7,1,1,0,0,541,0
8,1,1,0,0,542,0
9,1,1,0,0,542,0
10,1,1,0,0,541,0
11,1,1,0,0,541,0
12,1,1,0,0,541,0
13,1,1,0,0,540,0
14,1,1,0,0,540,0
15,1,1,0,0,539,0
0,1,1,0,0,539,0
1,1,1,0,0,539,0
2,1,1,0,0,539,0
3,1,1,0,0,539,0
4,1,1,0,0,540,0
5,1,1,0,0,541,0
6,1,1,0,0,542,0
7,1,1,0,0,543,0
8,1,1,0,0,544,0
9,1,1,0,0,545,0
10,1,1,0,0,545,0
11,1,1,0,0,545,0
12,1,1,0,0,545,0
13,1,1,0,0,545,0
14,1,1,0,0,544,0
15,1,1,0,0,544,0
0,1,1,0,0,543,0
1,1,1,0,0,542,0
2,1,1,0,0,542,0
3,1,1,0,0,541,0
4,1,1,0,0,540,0
5,1,1,0,0,540,0
6,1,1,0,0,540,0
7,1,1,0,0,540,0
8,1,1,0,0,540,0
9,1,1,0,0,541,0
10,1,1,0,0,542,0
11,1,1,0,0,542,0
12,1,1,0,0,542,0
13,1,1,0,0,542,0
14,1,1,0,0,542,0
15,1,1,0,0,543,0
0,1,1,0,0,543,0
1,1,1,0,0,543,0
2,1,1,0,0,542,0
3,1,1,0,0,542,0
4,1,1,0,0,541,0
5,1,1,0,0,540,0
6,1,1,0,0,538,0
7,1,1,0,0,537,0
8,1,1,0,0,536,0
9,1,1,0,0,536,0
10,1,1,0,0,536,0
11,1,1,0,0,536,0
12,1,1,0,0,535,0
13,1,1,0,0,536,0
14,1,1,0,0,536,0
15,1,1,0,0,537,0
0,1,1,0,0,537,0
1,1,1,0,0,537,0
2,1,1,0,0,536,0
3,1,1,0,0,536,0
4,1,1,0,0,536,0
5,1,1,0,0,537,0
6,1,1,0,0,536,0
7,1,1,0,0,534,0
8,1,1,0,0,534,0
9,1,1,0,0,532,0
10,1,1,0,0,531,0
11,1,1,0,0,531,0
12,1,1,0,0,530,0
13,1,1,0,0,529,0
14,1,1,0,0,529,0
15,1,1,0,0,529,0
0,1,1,0,0,529,0
1,1,1,0,0,529,0
2,1,1,0,0,531,0
3,1,1,0,0,532,0
4,1,1,0,0,533,0
5,1,1,0,0,533,0
6,1,1,0,0,533,0
7,1,1,0,0,534,0
8,1,1,0,0,534,0
9,1,1,0,0,534,0
10,1,1,0,0,534,0
11,1,1,0,0,533,0
12,1,1,0,0,532,0
13,1,1,0,0,531,0
14,1,1,0,0,530,0
15,1,1,0,0,531,0
0,1,1,0,0,531,0
1,1,1,0,0,530,0
2,1,1,0,0,530,0
3,1,1,0,0,530,0
4,1,1,0,0,530,0
5,1,1,0,0,531,0
6,1,1,0,0,530,0
7,1,1,0,0,531,0
8,1,1,0,0,532,0
9,1,1,0,0,532,0
10,1,1,0,0,531,0
11,1,1,0,0,531,0
12,1,1,0,0,530,0
13,1,1,0,0,529,0
14,1,1,0,0,528,0
15,1,1,0,0,527,0
0,1,1,0,0,526,0
1,1,1,0,0,524,0
2,1,1,0,0,523,0
3,1,1,0,0,522,0
4,1,1,0,0,521,0
5,1,1,0,0,520,0
6,1,1,0,0,519,0
7,1,1,0,0,518,0
8,1,1,0,0,518,0
9,1,1,0,0,518,0
10,1,1,0,0,519,0
11,1,1,0,0,520,0
12,1,1,0,0,521,0
13,1,1,0,0,521,0
14,1,1,0,0,522,0
15,1,1,0,0,523,0
0,1,1,0,0,523,0
1,1,1,0,0,523,0
2,1,1,0,0,522,0
3,1,1,0,0,521,0
4,1,1,0,0,521,0
5,1,1,0,0,520,0
6,1,1,0,0,519,0
7,1,1,0,0,519,0
8,1,1,0,0,518,0
9,1,1,0,0,518,0
10,1,1,0,0,517,0
11,1,1,0,0,517,0
12,1,1,0,0,518,0
13,1,1,0,0,519,0
14,1,1,0,0,520,0
15,1,1,0,0,521,0
0,1,1,0,0,522,0
1,1,1,0,0,523,0
2,1,1,0,0,522,0
3,1,1,0,0,522,0
4,1,1,0,0,522,0
5,1,1,0,0,523,0
6,1,1,0,0,522,0
7,1,1,0,0,520,0
8,1,1,0,0,520,0
9,1,1,0,0,519,0
10,1,1,0,0,518,0
11,1,1,0,0,518,0
12,1,1,0,0,517,0
13,1,1,0,0,517,0
14,1,1,0,0,516,0
15,1,1,0,0,516,0
0,1,1,0,0,516,0
1,1,1,0,0,517,0
2,1,1,0,0,518,0
3,1,1,0,0,518,0
4,1,1,0,0,519,0
5,1,1,0,0,519,0
6,1,1,0,0,519,0
7,1,1,0,0,519,0
8,1,1,0,0,519,0
9,1,1,0,0,519,0
10,1,1,0,0,519,0
11,1,1,0,0,517,0
12,1,1,0,0,516,0
13,1,1,0,0,515,0
14,1,1,0,0,515,0
15,1,1,0,0,515,0
0,1,1,0,0,514,0
1,1,1,0,0,513,0
2,1,1,0,0,513,0
3,1,1,0,0,513,0
4,1,1,0,0,513,0
5,1,1,0,0,514,0
6,1,1,0,0,515,0
7,1,1,0,0,516,0
8,1,1,0,0,516,0
9,1,1,0,0,516,0
10,1,1,0,0,517,0
11,1,1,0,0,517,0
12,1,1,0,0,517,0
13,1,1,0,0,516,0
14,1,1,0,0,516,0
15,1,1,0,0,515,0
0,1,1,0,0,515,0
1,1,1,0,0,513,0
2,1,1,0,0,513,0
3,1,1,0,0,512,0
4,1,1,0,0,512,0
5,1,1,0,0,511,0
6,1,1,0,0,511,0
7,1,1,0,0,511,0
8,1,1,0,0,511,0
9,1,1,0,0,512,0
10,1,1,0,0,514,0
11,1,1,0,0,514,0
12,1,1,0,0,515,0
13,1,1,0,0,516,0
14,1,1,0,0,516,0
15,1,1,0,0,516,0
0,1,1,0,0,516,0
1,1,1,0,0,516,0
2,1,1,0,0,515,0
3,1,1,0,0,514,0
4,1,1,0,0,513,0
5,1,1,0,0,512,0
6,1,1,0,0,511,0
7,1,1,0,0,511,0
8,1,1,0,0,511,0
9,1,1,0,0,511,0
10,1,1,0,0,511,0
11,1,1,0,0,511,0
12,1,1,0,0,511,0
13,1,1,0,0,512,0
14,1,1,0,0,514,0
15,1,1,0,0,515,0
0,1,1,0,0,515,0
1,1,1,0,0,516,0
2,1,1,0,0,515,0
3,1,1,0,0,515,0
4,1,1,0,0,515,0
5,1,1,0,0,515,0
6,1,1,0,0,514,0
7,1,1,0,0,513,0
8,1,1,0,0,512,0
9,1,1,0,0,511,0
10,1,1,0,0,510,0
11,1,1,0,0,510,0
12,1,1,0,0,509,0
13,1,1,0,0,509,0
14,1,1,0,0,509,0
15,1,1,0,0,509,0
0,1,1,0,0,509,0
1,1,1,0,0,511,0
2,1,1,0,0,512,0
3,1,1,0,0,513,0
4,1,1,0,0,513,0
5,1,1,0,0,514,0
6,1,1,0,0,513,0
7,1,1,0,0,513,0
8,1,1,0,0,513,0
9,1,1,0,0,513,0
10,1,1,0,0,512,0
11,1,1,0,0,511,0
12,1,1,0,0,511,0
13,1,1,0,0,510,0
14,1,1,0,0,508,0
15,1,1,0,0,507,0
0,1,1,0,0,507,0
1,1,1,0,0,507,0
2,1,1,0,0,507,0
3,1,1,0,0,508,0
4,1,1,0,0,508,0
5,1,1,0,0,509,0
6,1,1,0,0,510,0
7,1,1,0,0,511,0
8,1,1,0,0,511,0
9,1,1,0,0,512,0
10,1,1,0,0,512,0
11,1,1,0,0,512,0
12,1,1,0,0,512,0
13,1,1,0,0,512,0
14,1,1,0,0,511,0
15,1,1,0,0,511,0
0,1,1,0,0,510,0
1,1,1,0,0,509,0
2,1,1,0,0,508,0
3,1,1,0,0,508,0
4,1,1,0,0,508,0
5,1,1,0,0,508,0
6,1,1,0,0,507,0
7,1,1,0,0,507,0
8,1,1,0,0,508,0
9,1,1,0,0,508,0
10,1,1,0,0,510,0
11,1,1,0,0,511,0
12,1,1,0,0,512,0
13,1,1,0,0,513,0
14,1,1,0,0,513,0
15,1,1,0,0,513,0
0,1,1,0,0,513,0
1,1,1,0,0,513,0
2,1,1,0,0,513,0
3,1,1,0,0,512,0
4,1,1,0,0,512,0
5,1,1,0,0,511,0
6,1,1,0,0,510,0
7,1,1,0,0,509,0
8,1,1,0,0,508,0
9,1,1,0,0,508,0
10,1,1,0,0,507,0
11,1,1,0,0,507,0
12,1,1,0,0,508,0
13,1,1,0,0,509,0
14,1,1,0,0,510,0
15,1,1,0,0,511,0
0,1,1,0,0,511,0
1,1,1,0,0,512,0
2,1,1,0,0,513,0
3,1,1,0,0,513,0
4,1,1,0,0,514,0
5,1,1,0,0,514,0
6,1,1,0,0,514,0
7,1,1,0,0,514,0
8,1,1,0,0,513,0
9,1,1,0,0,512,0
10,1,1,0,0,512,0
11,1,1,0,0,511,0
12,1,1,0,0,510,0
13,1,1,0,0,510,0
14,1,1,0,0,509,0
15,1,1,0,0,510,0
0,1,1,0,0,510,0
1,1,1,0,0,511,0
2,1,1,0,0,512,0
3,1,1,0,0,513,0
4,1,1,0,0,514,0
5,1,1,0,0,515,0
6,1,1,0,0,515,0
7,1,1,0,0,515,0
8,1,1,0,0,516,0
9,1,1,0,0,516,0
10,1,1,0,0,515,0
11,1,1,0,0,514,0
12,1,1,0,0,514,0
13,1,1,0,0,512,0
14,1,1,0,0,512,0
15,1,1,0,0,511,0
0,1,1,0,0,511,0
1,1,1,0,0,511,0
2,1,1,0,0,510,0
3,1,1,0,0,510,0
4,1,1,0,0,510,0
5,1,1,0,0,511,0
6,1,1,0,0,512,0
7,1,1,0,0,513,0
8,1,1,0,0,513,0
9,1,1,0,0,514,0
10,1,1,0,0,514,0
11,1,1,0,0,514,0
12,1,1,0,0,515,0
13,1,1,0,0,514,0
14,1,1,0,0,513,0
15,1,1,0,0,512,0
0,1,1,0,0,512,0
1,1,1,0,0,511,0
2,1,1,0,0,510,0
3,1,1,0,0,510,0
4,1,1,0,0,509,0
5,1,1,0,0,508,0
6,1,1,0,0,508,0
7,1,1,0,0,508,0
8,1,1,0,0,509,0
9,1,1,0,0,510,0
10,1,1,0,0,510,0
11,1,1,0,0,511,0
12,1,1,0,0,512,0
13,1,1,0,0,512,0
14,1,1,0,0,512,0
15,1,1,0,0,513,0
0,1,1,0,0,513,0
1,1,1,0,0,513,0
2,1,1,0,0,512,0
3,1,1,0,0,512,0
4,1,1,0,0,511,0
5,1,1,0,0,511,0
6,1,1,0,0,510,0
7,1,1,0,0,509,0
8,1,1,0,0,508,0
9,1,1,0,0,508,0
10,1,1,0,0,508,0
11,1,1,0,0,509,0
12,1,1,0,0,509,0
13,1,1,0,0,510,0
14,1,1,0,0,512,0
15,1,1,0,0,513,0
0,1,1,0,0,513,0
1,1,1,0,0,514,0
2,1,1,0,0,514,0
3,1,1,0,0,514,0
4,1,1,0,0,515,0
5,1,1,0,0,515,0
6,1,1,0,0,514,0
7,1,1,0,0,513,0
8,1,1,0,0,512,0
9,1,1,0,0,511,0
10,1,1,0,0,510,0
11,1,1,0,0,510,0
12,1,1,0,0,509,0
13,1,1,0,0,509,0
14,1,1,0,0,509,0
15,1,1,0,0,510,0
0,1,1,0,0,511,0
1,1,1,0,0,512,0
2,1,1,0,0,514,0
3,1,1,0,0,515,0
4,1,1,0,0,515,0
5,1,1,0,0,516,0
6,1,1,0,0,516,0
7,1,1,0,0,516,0
8,1,1,0,0,516,0
9,1,1,0,0,516,0
10,1,1,0,0,515,0
11,1,1,0,0,513,0
12,1,1,0,0,512,0
13,1,1,0,0,512,0
14,1,1,0,0,511,0
15,1,1,0,0,511,0
0,1,1,0,0,510,0
1,1,1,0,0,510,0
2,1,1,0,0,509,0
3,1,1,0,0,510,0
4,1,1,0,0,509,0
5,1,1,0,0,510,0
6,1,1,0,0,511,0
7,1,1,0,0,512,0
8,1,1,0,0,513,0
9,1,1,0,0,514,0
10,1,1,0,0,515,0
11,1,1,0,0,515,0
12,1,1,0,0,515,0
13,1,1,0,0,514,0
14,1,1,0,0,513,0
15,1,1,0,0,512,0
0,1,1,0,0,512,0
1,1,1,0,0,511,0
2,1,1,0,0,510,0
3,1,1,0,0,510,0
4,1,1,0,0,509,0
5,1,1,0,0,509,0
6,1,1,0,0,508,0
7,1,1,0,0,508,0
8,1,1,0,0,509,0
9,1,1,0,0,510,0
10,1,1,0,0,510,0
11,1,1,0,0,511,0
12,1,1,0,0,512,0
13,1,1,0,0,512,0
14,1,1,0,0,513,0
15,1,1,0,0,513,0
0,1,1,0,0,513,0
1,1,1,0,0,513,0
2,1,1,0,0,512,0
3,1,1,0,0,512,0
4,1,1,0,0,511,0
5,1,1,0,0,510,0
6,1,1,0,0,509,0
7,1,1,0,0,508,0
8,1,1,0,0,508,0
9,1,1,0,0,508,0
10,1,1,0,0,508,0
11,1,1,0,0,508,0
12,1,1,0,0,508,0
13,1,1,0,0,509,0
14,1,1,0,0,511,0
15,1,1,0,0,511,0
0,1,1,0,0,512,0
1,1,1,0,0,512,0
2,1,1,0,0,512,0
3,1,1,0,0,512,0
4,1,1,0,0,513,0
5,1,1,0,0,513,0
6,1,1,0,0,513,0
7,1,1,0,0,512,0
8,1,1,0,0,512,0
9,1,1,0,0,511,0
10,1,1,0,0,509,0
11,1,1,0,0,509,0
12,1,1,0,0,508,0
13,1,1,0,0,508,0
14,1,1,0,0,508,0
15,1,1,0,0,509,0
0,1,1,0,0,509,0
1,1,1,0,0,510,0
2,1,1,0,0,511,0
3,1,1,0,0,512,0
4,1,1,0,0,513,0
5,1,1,0,0,513,0
6,1,1,0,0,514,0
7,1,1,0,0,514,0
8,1,1,0,0,515,0
9,1,1,0,0,514,0
10,1,1,0,0,513,0
11,1,1,0,0,513,0
12,1,1,0,0,512,0
13,1,1,0,0,511,0
14,1,1,0,0,511,0
15,1,1,0,0,511,0
0,1,1,0,0,510,0
1,1,1,0,0,510,0
2,1,1,0,0,510,0
3,1,1,0,0,511,0
4,1,1,0,0,511,0
5,1,1,0,0,512,0
6,1,1,0,0,513,0
7,1,1,0,0,513,0
8,1,1,0,0,514,0
9,1,1,0,0,514,0
10,1,1,0,0,514,0
11,1,1,0,0,514,0
12,1,1,0,0,515,0
13,1,1,0,0,515,0
14,1,1,0,0,514,0
15,1,1,0,0,513,0
0,1,1,0,0,512,0
1,1,1,0,0,511,0
2,1,1,0,0,510,0
3,1,1,0,0,510,0
4,1,1,0,0,509,0
5,1,1,0,0,508,0
6,1,1,0,0,508,0
7,1,1,0,0,509,0
8,1,1,0,0,509,0
9,1,1,0,0,510,0
10,1,1,0,0,511,0
11,1,1,0,0,511,0
12,1,1,0,0,512,0
13,1,1,0,0,513,0
14,1,1,0,0,513,0
15,1,1,0,0,513,0
0,1,1,0,0,514,0
1,1,1,0,0,514,0
2,1,1,0,0,514,0
3,1,1,0,0,513,0
4,1,1,0,0,512,0
5,1,1,0,0,512,0
6,1,1,0,0,511,0
7,1,1,0,0,510,0
8,1,1,0,0,510,0
9,1,1,0,0,509,0
10,1,1,0,0,509,0
11,1,1,0,0,509,0
12,1,1,0,0,509,0
13,1,1,0,0,510,0
14,1,1,0,0,511,0
15,1,1,0,0,512,0
0,1,1,0,0,513,0
1,1,1,0,0,513,0
2,1,1,0,0,513,0
3,1,1,0,0,513,0
4,1,1,0,0,513,0
5,1,1,0,0,513,0
6,1,1,0,0,512,0
7,1,1,0,0,512,0
8,1,1,0,0,512,0
9,1,1,0,0,510,0
10,1,1,0,0,509,0
11,1,1,0,0,509,0
12,1,1,0,0,508,0
13,1,1,0,0,508,0
14,1,1,0,0,508,0
15,1,1,0,0,508,0
0,1,1,0,0,508,0
1,1,1,0,0,510,0
2,1,1,0,0,511,0
3,1,1,0,0,512,0
4,1,1,0,0,513,0
5,1,1,0,0,514,0
6,1,1,0,0,514,0
7,1,1,0,0,514,0
8,1,1,0,0,515,0
9,1,1,0,0,515,0
10,1,1,0,0,515,0
11,1,1,0,0,513,0
12,1,1,0,0,512,0
13,1,1,0,0,511,0
14,1,1,0,0,510,0
15,1,1,0,0,510,0
0,1,1,0,0,509,0
1,1,1,0,0,509,0
2,1,1,0,0,508,0
3,1,1,0,0,509,0
4,1,1,0,0,509,0
5,1,1,0,0,510,0
6,1,1,0,0,511,0
7,1,1,0,0,511,0
8,1,1,0,0,512,0
9,1,1,0,0,513,0
10,1,1,0,0,513,0
11,1,1,0,0,514,0
12,1,1,0,0,513,0
13,1,1,0,0,513,0
14,1,1,0,0,513,0
15,1,1,0,0,512,0
0,1,1,0,0,512,0
1,1,1,0,0,511,0
2,1,1,0,0,509,0
3,1,1,0,0,509,0
4,1,1,0,0,509,0
5,1,1,0,0,508,0
6,1,1,0,0,508,0
7,1,1,0,0,509,0
8,1,1,0,0,509,0
9,1,1,0,0,509,0
10,1,1,0,0,511,0
11,1,1,0,0,511,0
12,1,1,0,0,512,0
13,1,1,0,0,513,0
14,1,1,0,0,513,0
15,1,1,0,0,512,0
0,1,1,0,0,513,0
1,1,1,0,0,512,0
2,1,1,0,0,511,0
3,1,1,0,0,511,0
4,1,1,0,0,511,0
5,1,1,0,0,510,0
6,1,1,0,0,509,0
7,1,1,0,0,508,0
8,1,1,0,0,508,0
9,1,1,0,0,507,0
10,1,1,0,0,507,0
11,1,1,0,0,507,0
12,1,1,0,0,508,0
13,1,1,0,0,508,0
14,1,1,0,0,509,0
15,1,1,0,0,511,0
0,1,1,0,0,512,0
1,1,1,0,0,513,0
2,1,1,0,0,513,0
3,1,1,0,0,513,0
4,1,1,0,0,513,0
5,1,1,0,0,513,0
6,1,1,0,0,513,0
7,1,1,0,0,513,0
8,1,1,0,0,512,0
9,1,1,0,0,512,0
10,1,1,0,0,510,0
11,1,1,0,0,510,0
12,1,1,0,0,508,0
13,1,1,0,0,508,0
14,1,1,0,0,508,0
15,1,1,0,0,508,0
0,1,1,0,0,508,0
1,1,1,0,0,510,0
2,1,1,0,0,511,0
3,1,1,0,0,512,0
4,1,1,0,0,513,0
5,1,1,0,0,513,0
6,1,1,0,0,514,0
7,1,1,0,0,514,0
8,1,1,0,0,515,0
9,1,1,0,0,516,0
10,1,1,0,0,517,0
11,1,1,0,0,516,0
12,1,1,0,0,516,0
13,1,1,0,0,515,0
14,1,1,0,0,514,0
15,1,1,0,0,514,0
0,1,1,0,0,513,0
1,1,1,0,0,513,0
2,1,1,0,0,513,0
3,1,1,0,0,512,0
4,1,1,0,0,512,0
5,1,1,0,0,512,0
6,1,1,0,0,513,0
7,1,1,0,0,513,0
8,1,1,0,0,513,0
9,1,1,0,0,513,0
10,1,1,0,0,513,0
11,1,1,0,0,512,0
12,1,1,0,0,510,0
13,1,1,0,0,508,0
14,1,1,0,0,506,0
15,1,1,0,0,504,0
0,1,1,0,0,504,0
1,1,1,0,0,503,0
2,1,1,0,0,502,0
3,1,1,0,0,501,0
4,1,1,0,0,500,0
5,1,1,0,0,500,0
6,1,1,0,0,501,0
7,1,1,0,0,501,0
8,1,1,0,0,502,0
9,1,1,0,0,504,0
10,1,1,0,0,505,0
11,1,1,0,0,505,0
12,1,1,0,0,507,0
13,1,1,0,0,507,0
14,1,1,0,0,508,0
15,1,1,0,0,508,0
0,1,1,0,0,508,0
1,1,1,0,0,508,0
2,1,1,0,0,509,0
3,1,1,0,0,508,0
4,1,1,0,0,508,0
5,1,1,0,0,507,0
6,1,1,0,0,506,0
7,1,1,0,0,505,0
8,1,1,0,0,505,0
9,1,1,0,0,504,0
10,1,1,0,0,505,0
11,1,1,0,0,505,0
12,1,1,0,0,506,0
13,1,1,0,0,508,0
14,1,1,0,0,510,0
15,1,1,0,0,511,0
0,1,1,0,0,513,0
1,1,1,0,0,513,0
2,1,1,0,0,515,0
3,1,1,0,0,516,0
4,1,1,0,0,517,0
5,1,1,0,0,518,0
6,1,1,0,0,517,0
7,1,1,0,0,517,0
8,1,1,0,0,517,0
9,1,1,0,0,516,0
10,1,1,0,0,515,0
11,1,1,0,0,514,0
12,1,1,0,0,513,0
13,1,1,0,0,514,0
14,1,1,0,0,513,0
15,1,1,0,0,513,0
0,1,1,0,0,514,0
1,1,1,0,0,515,0
2,1,1,0,0,516,0
3,1,1,0,0,518,0
4,1,1,0,0,518,0
5,1,1,0,0,520,0
6,1,1,0,0,520,0
7,1,1,0,0,520,0
8,1,1,0,0,520,0
9,1,1,0,0,519,0
10,1,1,0,0,518,0
11,1,1,0,0,517,0
12,1,1,0,0,518,0
13,1,1,0,0,516,0
14,1,1,0,0,515,0
15,1,1,0,0,515,0
0,1,1,0,0,515,0
1,1,1,0,0,514,0
2,1,1,0,0,514,0
3,1,1,0,0,515,0
4,1,1,0,0,515,0
5,1,1,0,0,515,0
6,1,1,0,0,516,0
7,1,1,0,0,517,0
8,1,1,0,0,518,0
9,1,1,0,0,519,0
10,1,1,0,0,519,0
11,1,1,0,0,519,0
12,1,1,0,0,519,0
13,1,1,0,0,519,0
14,1,1,0,0,518,0
15,1,1,0,0,518,0
0,1,1,0,0,517,0
1,1,1,0,0,515,0
2,1,1,0,0,515,0
3,1,1,0,0,515,0
4,1,1,0,0,514,0
5,1,1,0,0,513,0
6,1,1,0,0,513,0
7,1,1,0,0,512,0
8,1,1,0,0,512,0
9,1,1,0,0,513,0
10,1,1,0,0,515,0
11,1,1,0,0,515,0
12,1,1,0,0,516,0
13,1,1,0,0,516,0
14,1,1,0,0,516,0
15,1,1,0,0,516,0
0,1,1,0,0,516,0
1,1,1,0,0,516,0
2,1,1,0,0,516,0
3,1,1,0,0,516,0
4,1,1,0,0,516,0
5,1,1,0,0,515,0
6,1,1,0,0,514,0
7,1,1,0,0,513,0
8,1,1,0,0,512,0
9,1,1,0,0,512,0
10,1,1,0,0,512,0
11,1,1,0,0,512,0
12,1,1,0,0,511,0
13,1,1,0,0,512,0
14,1,1,0,0,512,0
15,1,1,0,0,513,0
0,1,1,0,0,514,0
1,1,1,0,0,515,0
2,1,1,0,0,515,0
3,1,1,0,0,515,0
4,1,1,0,0,515,0
5,1,1,0,0,514,0
6,1,1,0,0,513,0
7,1,1,0,0,512,0
8,1,1,0,0,510,0
9,1,1,0,0,508,0
10,1,1,0,0,507,0
11,1,1,0,0,505,0
12,1,1,0,0,501,0
13,1,1,0,0,497,0
14,1,1,0,0,491,0
15,1,1,0,0,484,0
0,1,1,0,0,477,0
1,1,1,0,0,470,0
2,1,1,0,0,465,0
3,1,1,0,0,460,0
4,1,1,0,0,455,0
5,1,1,0,0,451,0
6,1,1,0,0,449,0
7,1,1,0,0,448,0
8,1,1,0,0,448,0
9,1,1,0,0,448,0
10,1,1,0,0,446,0
11,1,1,0,0,443,0
12,1,1,0,0,440,0
13,1,1,0,0,437,0
14,1,1,0,0,436,0
15,1,1,0,0,436,0
0,1,1,0,0,437,0
1,1,1,0,0,440,0
2,1,1,0,0,444,0
3,1,1,0,0,451,0
4,1,1,0,0,461,0
5,1,1,0,0,472,0
6,1,1,0,0,483,0
7,1,1,0,0,495,0
8,1,1,0,0,507,0
9,1,1,0,0,519,0
10,1,1,0,0,533,0
11,1,1,0,0,545,0
12,1,1,0,0,559,0
13,1,1,0,0,576,0
14,1,1,0,0,593,0
15,1,1,0,0,614,0
0,1,1,0,0,636,0
1,1,1,0,0,661,0
2,1,1,0,0,687,0
3,1,1,0,0,711,0
4,1,1,0,0,731,0
5,1,1,0,0,743,0
6,1,1,0,0,749,0
7,1,1,0,0,749,0
8,1,1,0,0,747,0
9,1,1,0,0,747,0
10,1,1,0,0,750,0
11,1,1,0,0,753,0
12,1,1,0,0,755,0
13,1,1,0,0,753,0
14,1,1,0,0,744,0
15,1,1,0,0,733,0
0,1,1,0,0,720,0
1,1,1,0,0,705,0
2,1,1,0,0,689,0
3,1,1,0,0,671,0
4,1,1,0,0,652,0
5,1,1,0,0,631,0
6,1,1,0,0,609,0
7,1,1,0,0,590,0
8,1,1,0,0,572,0
9,1,1,0,0,556,0
10,1,1,0,0,542,0
11,1,1,0,0,528,0
12,1,1,0,0,518,0
13,1,1,0,0,510,0
14,1,1,0,0,504,0
15,1,1,0,0,498,0
0,1,1,0,0,494,0
1,1,1,0,0,490,0
2,1,1,0,0,487,0
3,1,1,0,0,485,0
4,1,1,0,0,483,0
5,1,1,0,0,481,0
6,1,1,0,0,480,0
7,1,1,0,0,480,0
8,1,1,0,0,479,0
9,1,1,0,0,478,0
10,1,1,0,0,476,0
11,1,1,0,0,475,0
12,1,1,0,0,473,0
13,1,1,0,0,473,0
14,1,1,0,0,472,0
15,1,1,0,0,470,0
0,1,1,0,0,470,0
1,1,1,0,0,471,0
2,1,1,0,0,471,0
3,1,1,0,0,471,0
4,1,1,0,0,471,0
5,1,1,0,0,470,0
6,1,1,0,0,470,0
7,1,1,0,0,470,0
8,1,1,0,0,469,0
9,1,1,0,0,469,0
10,1,1,0,0,467,0
11,1,1,0,0,467,0
12,1,1,0,0,466,0
13,1,1,0,0,464,0
14,1,1,0,0,462,0
15,1,1,0,0,460,0
0,1,1,0,0,459,0
1,1,1,0,0,458,0
2,1,1,0,0,457,0
3,1,1,0,0,457,0
4,1,1,0,0,457,0
5,1,1,0,0,458,0
6,1,1,0,0,460,0
7,1,1,0,0,460,0
8,1,1,0,0,461,0
9,1,1,0,0,462,0
10,1,1,0,0,463,0
11,1,1,0,0,464,0
12,1,1,0,0,465,0
13,1,1,0,0,467,0
14,1,1,0,0,467,0
15,1,1,0,0,468,0
0,1,1,0,0,468,0
1,1,1,0,0,467,0
2,1,1,0,0,467,0
3,1,1,0,0,467,0
4,1,1,0,0,467,0
5,1,1,0,0,466,0
6,1,1,0,0,466,0
7,1,1,0,0,467,0
8,1,1,0,0,467,0
9,1,1,0,0,468,0
10,1,1,0,0,469,0
11,1,1,0,0,469,0
12,1,1,0,0,468,0
13,1,1,0,0,468,0
14,1,1,0,0,467,0
15,1,1,0,0,467,0
0,1,1,0,0,467,0
1,1,1,0,0,467,0
2,1,1,0,0,465,0
3,1,1,0,0,463,0
4,1,1,0,0,463,0
5,1,1,0,0,462,0
6,1,1,0,0,461,0
7,1,1,0,0,460,0
8,1,1,0,0,460,0
9,1,1,0,0,460,0
10,1,1,0,0,459,0
11,1,1,0,0,460,0
12,1,1,0,0,461,0
13,1,1,0,0,462,0
14,1,1,0,0,463,0
15,1,1,0,0,465,0
0,1,1,0,0,467,0
1,1,1,0,0,468,0
2,1,1,0,0,470,0
3,1,1,0,0,470,0
4,1,1,0,0,471,0
5,1,1,0,0,472,0
6,1,1,0,0,472,0
7,1,1,0,0,472,0
8,1,1,0,0,472,0
9,1,1,0,0,471,0
10,1,1,0,0,470,0
11,1,1,0,0,470,0
12,1,1,0,0,470,0
13,1,1,0,0,470,0
14,1,1,0,0,469,0
15,1,1,0,0,470,0
0,1,1,0,0,470,0
1,1,1,0,0,472,0
2,1,1,0,0,473,0
3,1,1,0,0,475,0
4,1,1,0,0,476,0
5,1,1,0,0,477,0
6,1,1,0,0,477,0
7,1,1,0,0,479,0
8,1,1,0,0,478,0
9,1,1,0,0,478,0
10,1,1,0,0,478,0
11,1,1,0,0,478,0
12,1,1,0,0,478,0
13,1,1,0,0,476,0
14,1,1,0,0,476,0
15,1,1,0,0,476,0
0,1,1,0,0,475,0
1,1,1,0,0,475,0
2,1,1,0,0,474,0
3,1,1,0,0,475,0
4,1,1,0,0,476,0
5,1,1,0,0,477,0
6,1,1,0,0,478,0
7,1,1,0,0,479,0
8,1,1,0,0,479,0
9,1,1,0,0,480,0
10,1,1,0,0,480,0
11,1,1,0,0,480,0
12,1,1,0,0,481,0
13,1,1,0,0,481,0
14,1,1,0,0,480,0
15,1,1,0,0,480,0
0,1,1,0,0,479,0
1,1,1,0,0,478,0
2,1,1,0,0,477,0
3,1,1,0,0,476,0
4,1,1,0,0,476,0
5,1,1,0,0,476,0
6,1,1,0,0,476,0
7,1,1,0,0,476,0
8,1,1,0,0,478,0
9,1,1,0,0,479,0
10,1,1,0,0,481,0
11,1,1,0,0,481,0
12,1,1,0,0,482,0
13,1,1,0,0,483,0
14,1,1,0,0,482,0
15,1,1,0,0,482,0
0,1,1,0,0,483,0
1,1,1,0,0,485,0
2,1,1,0,0,484,0
3,1,1,0,0,483,0
4,1,1,0,0,482,0
5,1,1,0,0,481,0
6,1,1,0,0,480,0
7,1,1,0,0,480,0
8,1,1,0,0,481,0
9,1,1,0,0,481,0
10,1,1,0,0,480,0
11,1,1,0,0,480,0
12,1,1,0,0,480,0
13,1,1,0,0,480,0
14,1,1,0,0,480,0
15,1,1,0,0,481,0
0,1,1,0,0,482,0
1,1,1,0,0,483,0
2,1,1,0,0,482,0
3,1,1,0,0,482,0
4,1,1,0,0,482,0
5,1,1,0,0,482,0
6,1,1,0,0,482,0
7,1,1,0,0,480,0
8,1,1,0,0,479,0
9,1,1,0,0,477,0
10,1,1,0,0,476,0
11,1,1,0,0,475,0
12,1,1,0,0,474,0
13,1,1,0,0,473,0
14,1,1,0,0,472,0
15,1,1,0,0,473,0
0,1,1,0,0,473,0
1,1,1,0,0,473,0
2,1,1,0,0,475,0
3,1,1,0,0,476,0
4,1,1,0,0,476,0
5,1,1,0,0,477,0
6,1,1,0,0,476,0
7,1,1,0,0,477,0
8,1,1,0,0,477,0
9,1,1,0,0,476,0
10,1,1,0,0,474,0
11,1,1,0,0,473,0
12,1,1,0,0,472,0
13,1,1,0,0,471,0
14,1,1,0,0,470,0
15,1,1,0,0,469,0
0,1,1,0,0,469,0
1,1,1,0,0,468,0
2,1,1,0,0,468,0
3,1,1,0,0,468,0
4,1,1,0,0,468,0
5,1,1,0,0,468,0
6,1,1,0,0,471,0
7,1,1,0,0,471,0
8,1,1,0,0,472,0
9,1,1,0,0,472,0
10,1,1,0,0,472,0
11,1,1,0,0,473,0
12,1,1,0,0,474,0
13,1,1,0,0,474,0
14,1,1,0,0,473,0
15,1,1,0,0,473,0
0,1,1,0,0,472,0
1,1,1,0,0,472,0
2,1,1,0,0,472,0
3,1,1,0,0,472,0
4,1,1,0,0,473,0
5,1,1,0,0,473,0
6,1,1,0,0,473,0
7,1,1,0,0,475,0
8,1,1,0,0,476,0
9,1,1,0,0,477,0
10,1,1,0,0,479,0
11,1,1,0,0,480,0
12,1,1,0,0,483,0
13,1,1,0,0,485,0
14,1,1,0,0,486,0
15,1,1,0,0,487,0
0,1,1,0,0,489,0
1,1,1,0,0,491,0
2,1,1,0,0,492,0
3,1,1,0,0,493,0
4,1,1,0,0,494,0
5,1,1,0,0,494,0
6,1,1,0,0,495,0
7,1,1,0,0,496,0
8,1,1,0,0,496,0
9,1,1,0,0,497,0
10,1,1,0,0,499,0
11,1,1,0,0,501,0
12,1,1,0,0,504,0
13,1,1,0,0,505,0
14,1,1,0,0,508,0
15,1,1,0,0,511,0
0,1,1,0,0,512,0
1,1,1,0,0,515,0
2,1,1,0,0,516,0
3,1,1,0,0,518,0
4,1,1,0,0,519,0
5,1,1,0,0,520,0
6,1,1,0,0,521,0
7,1,1,0,0,522,0
8,1,1,0,0,523,0
9,1,1,0,0,524,0
10,1,1,0,0,524,0
11,1,1,0,0,524,0
12,1,1,0,0,525,0
13,1,1,0,0,526,0
14,1,1,0,0,528,0
15,1,1,0,0,530,0
0,1,1,0,0,533,0
1,1,1,0,0,535,0
2,1,1,0,0,537,0
3,1,1,0,0,540,0
4,1,1,0,0,542,0
5,1,1,0,0,544,0
6,1,1,0,0,545,0
7,1,1,0,0,547,0
8,1,1,0,0,547,0
9,1,1,0,0,547,0
10,1,1,0,0,547,0
11,1,1,0,0,547,0
12,1,1,0,0,548,0
13,1,1,0,0,547,0
14,1,1,0,0,547,0
15,1,1,0,0,547,0
0,1,1,0,0,547,0
1,1,1,0,0,546,0
2,1,1,0,0,547,0
3,1,1,0,0,548,0
4,1,1,0,0,548,0
5,1,1,0,0,549,0
6,1,1,0,0,551,0
7,1,1,0,0,552,0
8,1,1,0,0,553,0
9,1,1,0,0,555,0
10,1,1,0,0,555,0
11,1,1,0,0,556,0
12,1,1,0,0,556,0
13,1,1,0,0,557,0
14,1,1,0,0,556,0
15,1,1,0,0,555,0
0,1,1,0,0,554,0
1,1,1,0,0,553,0
2,1,1,0,0,551,0
3,1,1,0,0,551,0
4,1,1,0,0,551,0
5,1,1,0,0,549,0
6,1,1,0,0,549,0
7,1,1,0,0,550,0
8,1,1,0,0,550,0
9,1,1,0,0,550,0
10,1,1,0,0,551,0
11,1,1,0,0,551,0
12,1,1,0,0,552,0
13,1,1,0,0,552,0
14,1,1,0,0,552,0
15,1,1,0,0,552,0
0,1,1,0,0,553,0
1,1,1,0,0,553,0
2,1,1,0,0,552,0
3,1,1,0,0,551,0
4,1,1,0,0,550,0
5,1,1,0,0,548,0
6,1,1,0,0,547,0
7,1,1,0,0,546,0
8,1,1,0,0,545,0
9,1,1,0,0,544,0
10,1,1,0,0,543,0
11,1,1,0,0,543,0
12,1,1,0,0,544,0
13,1,1,0,0,545,0
14,1,1,0,0,545,0
15,1,1,0,0,547,0
0,1,1,0,0,547,0
1,1,1,0,0,547,0
2,1,1,0,0,547,0
3,1,1,0,0,547,0
4,1,1,0,0,547,0
5,1,1,0,0,546,0
6,1,1,0,0,545,0
7,1,1,0,0,544,0
8,1,1,0,0,543,0
9,1,1,0,0,541,0
10,1,1,0,0,540,0
11,1,1,0,0,539,0
12,1,1,0,0,538,0
13,1,1,0,0,538,0
14,1,1,0,0,537,0
15,1,1,0,0,537,0
0,1,1,0,0,537,0
1,1,1,0,0,537,0
2,1,1,0,0,538,0
3,1,1,0,0,539,0
4,1,1,0,0,539,0
5,1,1,0,0,540,0
6,1,1,0,0,540,0
7,1,1,0,0,540,0
8,1,1,0,0,540,0
9,1,1,0,0,540,0
10,1,1,0,0,540,0
11,1,1,0,0,538,0
12,1,1,0,0,538,0
13,1,1,0,0,537,0
14,1,1,0,0,536,0
15,1,1,0,0,536,0
0,1,1,0,0,536,0
1,1,1,0,0,535,0
2,1,1,0,0,535,0
3,1,1,0,0,535,0
4,1,1,0,0,536,0
5,1,1,0,0,538,0
6,1,1,0,0,540,0
7,1,1,0,0,541,0
8,1,1,0,0,542,0
9,1,1,0,0,543,0
10,1,1,0,0,542,0
11,1,1,0,0,542,0
12,1,1,0,0,542,0
13,1,1,0,0,541,0
14,1,1,0,0,540,0
15,1,1,0,0,538,0
0,1,1,0,0,537,0
1,1,1,0,0,536,0
2,1,1,0,0,534,0
3,1,1,0,0,533,0
4,1,1,0,0,531,0
5,1,1,0,0,530,0
6,1,1,0,0,529,0
7,1,1,0,0,528,0
8,1,1,0,0,528,0
9,1,1,0,0,528,0
10,1,1,0,0,529,0
11,1,1,0,0,530,0
12,1,1,0,0,530,0
13,1,1,0,0,530,0
14,1,1,0,0,529,0
15,1,1,0,0,529,0
0,1,1,0,0,528,0
1,1,1,0,0,528,0
2,1,1,0,0,526,0
3,1,1,0,0,526,0
4,1,1,0,0,525,0
5,1,1,0,0,524,0
6,1,1,0,0,524,0
7,1,1,0,0,523,0
8,1,1,0,0,521,0
9,1,1,0,0,521,0
10,1,1,0,0,521,0
11,1,1,0,0,522,0
12,1,1,0,0,522,0
13,1,1,0,0,522,0
14,1,1,0,0,525,0
15,1,1,0,0,527,0
0,1,1,0,0,528,0
1,1,1,0,0,527,0
2,1,1,0,0,526,0
3,1,1,0,0,526,0
4,1,1,0,0,527,0
5,1,1,0,0,526,0
6,1,1,0,0,525,0
7,1,1,0,0,523,0
8,1,1,0,0,523,0
9,1,1,0,0,521,0
10,1,1,0,0,521,0
11,1,1,0,0,520,0
12,1,1,0,0,519,0
13,1,1,0,0,519,0
14,1,1,0,0,519,0
15,1,1,0,0,519,0
0,1,1,0,0,520,0
1,1,1,0,0,520,0
2,1,1,0,0,521,0
3,1,1,0,0,522,0
4,1,1,0,0,523,0
5,1,1,0,0,524,0
6,1,1,0,0,524,0
7,1,1,0,0,524,0
8,1,1,0,0,524,0
9,1,1,0,0,524,0
10,1,1,0,0,524,0
11,1,1,0,0,523,0
12,1,1,0,0,522,0
13,1,1,0,0,520,0
14,1,1,0,0,520,0
15,1,1,0,0,519,0
0,1,1,0,0,518,0
1,1,1,0,0,516,0
2,1,1,0,0,516,0
3,1,1,0,0,516,0
4,1,1,0,0,516,0
5,1,1,0,0,518,0
6,1,1,0,0,519,0
7,1,1,0,0,520,0
8,1,1,0,0,521,0
9,1,1,0,0,522,0
10,1,1,0,0,522,0
11,1,1,0,0,523,0
12,1,1,0,0,522,0
13,1,1,0,0,522,0
14,1,1,0,0,522,0
15,1,1,0,0,521,0
0,1,1,0,0,520,0
1,1,1,0,0,519,0
2,1,1,0,0,519,0
3,1,1,0,0,518,0
4,1,1,0,0,517,0
5,1,1,0,0,517,0
6,1,1,0,0,517,0
7,1,1,0,0,518,0
8,1,1,0,0,518,0
9,1,1,0,0,517,0
10,1,1,0,0,519,0
11,1,1,0,0,521,0
12,1,1,0,0,523,0
13,1,1,0,0,523,0
14,1,1,0,0,523,0
15,1,1,0,0,524,0
0,1,1,0,0,524,0
1,1,1,0,0,523,0
2,1,1,0,0,523,0
3,1,1,0,0,523,0
4,1,1,0,0,522,0
5,1,1,0,0,521,0
6,1,1,0,0,520,0
7,1,1,0,0,520,0
8,1,1,0,0,520,0
9,1,1,0,0,519,0
10,1,1,0,0,520,0
11,1,1,0,0,519,0
12,1,1,0,0,519,0
13,1,1,0,0,519,0
14,1,1,0,0,521,0
15,1,1,0,0,522,0
0,1,1,0,0,523,0
1,1,1,0,0,523,0
2,1,1,0,0,523,0
3,1,1,0,0,523,0
4,1,1,0,0,523,0
5,1,1,0,0,524,0
6,1,1,0,0,523,0
7,1,1,0,0,522,0
8,1,1,0,0,521,0
9,1,1,0,0,520,0
10,1,1,0,0,519,0
11,1,1,0,0,519,0
12,1,1,0,0,518,0
13,1,1,0,0,518,0
14,1,1,0,0,516,0
15,1,1,0,0,516,0
0,1,1,0,0,516,0
1,1,1,0,0,517,0
2,1,1,0,0,519,0
3,1,1,0,0,520,0
4,1,1,0,0,520,0
5,1,1,0,0,521,0
6,1,1,0,0,521,0
7,1,1,0,0,522,0
8,1,1,0,0,522,0
9,1,1,0,0,522,0
10,1,1,0,0,521,0
11,1,1,0,0,520,0
12,1,1,0,0,519,0
13,1,1,0,0,518,0
14,1,1,0,0,517,0
15,1,1,0,0,518,0
0,1,1,0,0,517,0
1,1,1,0,0,517,0
2,1,1,0,0,515,0
3,1,1,0,0,515,0
4,1,1,0,0,516,0
5,1,1,0,0,516,0
6,1,1,0,0,517,0
7,1,1,0,0,518,0
8,1,1,0,0,519,0
9,1,1,0,0,519,0
10,1,1,0,0,520,0
11,1,1,0,0,520,0
12,1,1,0,0,521,0
13,1,1,0,0,521,0
14,1,1,0,0,520,0
15,1,1,0,0,519,0
0,1,1,0,0,518,0
1,1,1,0,0,516,0
2,1,1,0,0,515,0
3,1,1,0,0,515,0
4,1,1,0,0,514,0
5,1,1,0,0,514,0
6,1,1,0,0,513,0
7,1,1,0,0,514,0
8,1,1,0,0,514,0
9,1,1,0,0,515,0
10,1,1,0,0,517,0
11,1,1,0,0,518,0
12,1,1,0,0,518,0
13,1,1,0,0,519,0
14,1,1,0,0,519,0
15,1,1,0,0,519,0
0,1,1,0,0,519,0
1,1,1,0,0,519,0
2,1,1,0,0,519,0
3,1,1,0,0,518,0
4,1,1,0,0,517,0
5,1,1,0,0,516,0
6,1,1,0,0,516,0
7,1,1,0,0,515,0
8,1,1,0,0,514,0
9,1,1,0,0,514,0
10,1,1,0,0,512,0
11,1,1,0,0,512,0
12,1,1,0,0,512,0
13,1,1,0,0,513,0
14,1,1,0,0,514,0
15,1,1,0,0,515,0
0,1,1,0,0,514,0
1,1,1,0,0,515,0
2,1,1,0,0,515,0
3,1,1,0,0,515,0
4,1,1,0,0,516,0
5,1,1,0,0,516,0
6,1,1,0,0,515,0
7,1,1,0,0,515,0
8,1,1,0,0,514,0
9,1,1,0,0,513,0
10,1,1,0,0,511,0
11,1,1,0,0,511,0
12,1,1,0,0,510,0
13,1,1,0,0,510,0
14,1,1,0,0,509,0
15,1,1,0,0,510,0
0,1,1,0,0,510,0
1,1,1,0,0,510,0
2,1,1,0,0,512,0
3,1,1,0,0,512,0
4,1,1,0,0,512,0
5,1,1,0,0,513,0
6,1,1,0,0,513,0
7,1,1,0,0,513,0
8,1,1,0,0,514,0
9,1,1,0,0,514,0
10,1,1,0,0,514,0
11,1,1,0,0,512,0
12,1,1,0,0,512,0
13,1,1,0,0,511,0
14,1,1,0,0,510,0
15,1,1,0,0,509,0
0,1,1,0,0,509,0
1,1,1,0,0,508,0
2,1,1,0,0,508,0
3,1,1,0,0,508,0
4,1,1,0,0,509,0
5,1,1,0,0,510,0
6,1,1,0,0,512,0
7,1,1,0,0,512,0
8,1,1,0,0,513,0
9,1,1,0,0,514,0
10,1,1,0,0,514,0
11,1,1,0,0,514,0
12,1,1,0,0,513,0
13,1,1,0,0,513,0
14,1,1,0,0,512,0
15,1,1,0,0,512,0
0,1,1,0,0,512,0
1,1,1,0,0,511,0
2,1,1,0,0,510,0
3,1,1,0,0,509,0
4,1,1,0,0,508,0
5,1,1,0,0,507,0
6,1,1,0,0,508,0
7,1,1,0,0,507,0
8,1,1,0,0,507,0
9,1,1,0,0,508,0
10,1,1,0,0,510,0
11,1,1,0,0,511,0
12,1,1,0,0,512,0
13,1,1,0,0,512,0
14,1,1,0,0,512,0
15,1,1,0,0,513,0
0,1,1,0,0,514,0
1,1,1,0,0,514,0
2,1,1,0,0,513,0
3,1,1,0,0,512,0
4,1,1,0,0,512,0
5,1,1,0,0,512,0
6,1,1,0,0,511,0
7,1,1,0,0,509,0
8,1,1,0,0,508,0
9,1,1,0,0,508,0
10,1,1,0,0,508,0
11,1,1,0,0,508,0
12,1,1,0,0,510,0
13,1,1,0,0,510,0
14,1,1,0,0,511,0
15,1,1,0,0,512,0
0,1,1,0,0,511,0
1,1,1,0,0,510,0
2,1,1,0,0,511,0
3,1,1,0,0,512,0
4,1,1,0,0,512,0
5,1,1,0,0,512,0
6,1,1,0,0,512,0
7,1,1,0,0,512,0
8,1,1,0,0,511,0
9,1,1,0,0,511,0
10,1,1,0,0,510,0
11,1,1,0,0,510,0
12,1,1,0,0,510,0
13,1,1,0,0,509,0
14,1,1,0,0,509,0
15,1,1,0,0,509,0
0,1,1,0,0,508,0
1,1,1,0,0,510,0
2,1,1,0,0,511,0
3,1,1,0,0,511,0
4,1,1,0,0,512,0
5,1,1,0,0,513,0
6,1,1,0,0,512,0
7,1,1,0,0,512,0
8,1,1,0,0,512,0
9,1,1,0,0,513,0
10,1,1,0,0,513,0
11,1,1,0,0,512,0
12,1,1,0,0,512,0
13,1,1,0,0,510,0
14,1,1,0,0,510,0
15,1,1,0,0,510,0
0,1,1,0,0,509,0
1,1,1,0,0,508,0
2,1,1,0,0,507,0
3,1,1,0,0,507,0
4,1,1,0,0,508,0
5,1,1,0,0,508,0
6,1,1,0,0,510,0
7,1,1,0,0,511,0
8,1,1,0,0,512,0
9,1,1,0,0,512,0
10,1,1,0,0,513,0
11,1,1,0,0,512,0
12,1,1,0,0,513,0
13,1,1,0,0,512,0
14,1,1,0,0,511,0
15,1,1,0,0,511,0
0,1,1,0,0,510,0
1,1,1,0,0,509,0
2,1,1,0,0,508,0
3,1,1,0,0,508,0
4,1,1,0,0,508,0
5,1,1,0,0,507,0
6,1,1,0,0,507,0
7,1,1,0,0,507,0
8,1,1,0,0,507,0
9,1,1,0,0,509,0
10,1,1,0,0,510,0
11,1,1,0,0,511,0
12,1,1,0,0,513,0
13,1,1,0,0,512,0
14,1,1,0,0,512,0
15,1,1,0,0,513,0
0,1,1,0,0,514,0
1,1,1,0,0,513,0
2,1,1,0,0,513,0
3,1,1,0,0,512,0
4,1,1,0,0,511,0
5,1,1,0,0,510,0
6,1,1,0,0,509,0
7,1,1,0,0,508,0
8,1,1,0,0,508,0
9,1,1,0,0,508,0
10,1,1,0,0,509,0
11,1,1,0,0,508,0
12,1,1,0,0,508,0
13,1,1,0,0,509,0
14,1,1,0,0,510,0
15,1,1,0,0,511,0
0,1,1,0,0,511,0
1,1,1,0,0,513,0
2,1,1,0,0,513,0
3,1,1,0,0,513,0
4,1,1,0,0,512,0
5,1,1,0,0,512,0
6,1,1,0,0,512,0
7,1,1,0,0,511,0
8,1,1,0,0,511,0
9,1,1,0,0,511,0
10,1,1,0,0,508,0
11,1,1,0,0,507,0
12,1,1,0,0,508,0
13,1,1,0,0,508,0
14,1,1,0,0,507,0
15,1,1,0,0,507,0
0,1,1,0,0,508,0
1,1,1,0,0,509,0
2,1,1,0,0,511,0
3,1,1,0,0,511,0
4,1,1,0,0,513,0
5,1,1,0,0,514,0
6,1,1,0,0,514,0
7,1,1,0,0,513,0
8,1,1,0,0,513,0
9,1,1,0,0,512,0
10,1,1,0,0,512,0
11,1,1,0,0,510,0
12,1,1,0,0,510,0
13,1,1,0,0,509,0
14,1,1,0,0,508,0
15,1,1,0,0,507,0
0,1,1,0,0,507,0
1,1,1,0,0,506,0
2,1,1,0,0,507,0
3,1,1,0,0,507,0
4,1,1,0,0,506,0
5,1,1,0,0,507,0
6,1,1,0,0,509,0
7,1,1,0,0,510,0
8,1,1,0,0,510,0
9,1,1,0,0,511,0
10,1,1,0,0,512,0
11,1,1,0,0,512,0
12,1,1,0,0,512,0
13,1,1,0,0,513,0
14,1,1,0,0,512,0
15,1,1,0,0,512,0
0,1,1,0,0,511,0
1,1,1,0,0,510,0
2,1,1,0,0,508,0
3,1,1,0,0,508,0
4,1,1,0,0,507,0
5,1,1,0,0,507,0
6,1,1,0,0,506,0
7,1,1,0,0,507,0
8,1,1,0,0,506,0
9,1,1,0,0,507,0
10,1,1,0,0,508,0
11,1,1,0,0,508,0
12,1,1,0,0,509,0
13,1,1,0,0,510,0
14,1,1,0,0,511,0
15,1,1,0,0,511,0
0,1,1,0,0,512,0
1,1,1,0,0,512,0
2,1,1,0,0,512,0
3,1,1,0,0,510,0
4,1,1,0,0,510,0
5,1,1,0,0,508,0
6,1,1,0,0,508,0
7,1,1,0,0,508,0
8,1,1,0,0,507,0
9,1,1,0,0,506,0
10,1,1,0,0,505,0
11,1,1,0,0,507,0
12,1,1,0,0,508,0
13,1,1,0,0,508,0
14,1,1,0,0,509,0
15,1,1,0,0,510,0
0,1,1,0,0,511,0
1,1,1,0,0,511,0
2,1,1,0,0,511,0
3,1,1,0,0,511,0
4,1,1,0,0,512,0
5,1,1,0,0,511,0
6,1,1,0,0,510,0
7,1,1,0,0,510,0
8,1,1,0,0,510,0
9,1,1,0,0,508,0
10,1,1,0,0,507,0
11,1,1,0,0,507,0
12,1,1,0,0,507,0
13,1,1,0,0,507,0
14,1,1,0,0,507,0
15,1,1,0,0,508,0
0,1,1,0,0,508,0
1,1,1,0,0,508,0
2,1,1,0,0,509,0
3,1,1,0,0,510,0
4,1,1,0,0,511,0
5,1,1,0,0,512,0
6,1,1,0,0,512,0
7,1,1,0,0,512,0
8,1,1,0,0,513,0
9,1,1,0,0,512,0
10,1,1,0,0,512,0
11,1,1,0,0,512,0
12,1,1,0,0,511,0
13,1,1,0,0,508,0
14,1,1,0,0,507,0
15,1,1,0,0,507,0
0,1,1,0,0,507,0
1,1,1,0,0,507,0
2,1,1,0,0,507,0
3,1,1,0,0,508,0
4,1,1,0,0,507,0
5,1,1,0,0,508,0
6,1,1,0,0,509,0
7,1,1,0,0,511,0
8,1,1,0,0,511,0
9,1,1,0,0,511,0
10,1,1,0,0,510,0
11,1,1,0,0,511,0
12,1,1,0,0,511,0
13,1,1,0,0,512,0
14,1,1,0,0,511,0
15,1,1,0,0,511,0
0,1,1,0,0,511,0
1,1,1,0,0,510,0
2,1,1,0,0,509,0
3,1,1,0,0,508,0
4,1,1,0,0,508,0
5,1,1,0,0,507,0
6,1,1,0,0,506,0
7,1,1,0,0,507,0
8,1,1,0,0,507,0
9,1,1,0,0,507,0
10,1,1,0,0,508,0
11,1,1,0,0,509,0
12,1,1,0,0,510,0
13,1,1,0,0,510,0
14,1,1,0,0,511,0
15,1,1,0,0,510,0
0,1,1,0,0,511,0
1,1,1,0,0,511,0
2,1,1,0,0,510,0
3,1,1,0,0,511,0
4,1,1,0,0,510,0
5,1,1,0,0,510,0
6,1,1,0,0,509,0
7,1,1,0,0,508,0
8,1,1,0,0,508,0
9,1,1,0,0,509,0
10,1,1,0,0,507,0
11,1,1,0,0,507,0
12,1,1,0,0,506,0
13,1,1,0,0,508,0
14,1,1,0,0,509,0
15,1,1,0,0,509,0
0,1,1,0,0,509,0
1,1,1,0,0,511,0
2,1,1,0,0,511,0
3,1,1,0,0,511,0
4,1,1,0,0,512,0
5,1,1,0,0,511,0
6,1,1,0,0,511,0
7,1,1,0,0,511,0
8,1,1,0,0,511,0
9,1,1,0,0,509,0
10,1,1,0,0,508,0
11,1,1,0,0,508,0
12,1,1,0,0,508,0
13,1,1,0,0,508,0
14,1,1,0,0,509,0
15,1,1,0,0,510,0
0,1,1,0,0,510,0
1,1,1,0,0,511,0
2,1,1,0,0,512,0
3,1,1,0,0,512,0
4,1,1,0,0,512,0
5,1,1,0,0,513,0
6,1,1,0,0,514,0
7,1,1,0,0,513,0
8,1,1,0,0,512,0
9,1,1,0,0,510,0
10,1,1,0,0,511,0
11,1,1,0,0,511,0
12,1,1,0,0,510,0
13,1,1,0,0,508,0
14,1,1,0,0,507,0
15,1,1,0,0,507,0
0,1,1,0,0,504,0
1,1,1,0,0,501,0
2,1,1,0,0,499,0
3,1,1,0,0,497,0
4,1,1,0,0,497,0
5,1,1,0,0,498,0
6,1,1,0,0,500,0
7,1,1,0,0,501,0
8,1,1,0,0,503,0
9,1,1,0,0,504,0
10,1,1,0,0,504,0
11,1,1,0,0,505,0
12,1,1,0,0,507,0
13,1,1,0,0,507,0
14,1,1,0,0,505,0
15,1,1,0,0,504,0
0,1,1,0,0,503,0
1,1,1,0,0,502,0
2,1,1,0,0,502,0
3,1,1,0,0,501,0
4,1,1,0,0,501,0
5,1,1,0,0,502,0
6,1,1,0,0,503,0
7,1,1,0,0,502,0
8,1,1,0,0,503,0
9,1,1,0,0,504,0
10,1,1,0,0,505,0
11,1,1,0,0,506,0
12,1,1,0,0,507,0
13,1,1,0,0,508,0
14,1,1,0,0,510,0
15,1,1,0,0,511,0
0,1,1,0,0,512,0
1,1,1,0,0,514,0
2,1,1,0,0,514,0
3,1,1,0,0,514,0
4,1,1,0,0,513,0
5,1,1,0,0,512,0
6,1,1,0,0,512,0
7,1,1,0,0,512,0
8,1,1,0,0,512,0
9,1,1,0,0,511,0
10,1,1,0,0,511,0
11,1,1,0,0,511,0
12,1,1,0,0,512,0
13,1,1,0,0,513,0
14,1,1,0,0,515,0
15,1,1,0,0,516,0
0,1,1,0,0,517,0
1,1,1,0,0,517,0
2,1,1,0,0,517,0
3,1,1,0,0,517,0
4,1,1,0,0,518,0
5,1,1,0,0,517,0
6,1,1,0,0,516,0
7,1,1,0,0,516,0
8,1,1,0,0,516,0
9,1,1,0,0,515,0
10,1,1,0,0,514,0
11,1,1,0,0,513,0
12,1,1,0,0,512,0
13,1,1,0,0,512,0
14,1,1,0,0,511,0
15,1,1,0,0,511,0
0,1,1,0,0,512,0
1,1,1,0,0,512,0
2,1,1,0,0,513,0
3,1,1,0,0,515,0
4,1,1,0,0,516,0
5,1,1,0,0,516,0
6,1,1,0,0,517,0
7,1,1,0,0,518,0
8,1,1,0,0,518,0
9,1,1,0,0,518,0
10,1,1,0,0,517,0
11,1,1,0,0,516,0
12,1,1,0,0,515,0
13,1,1,0,0,515,0
14,1,1,0,0,514,0
15,1,1,0,0,515,0
0,1,1,0,0,513,0
1,1,1,0,0,512,0
2,1,1,0,0,512,0
3,1,1,0,0,513,0
4,1,1,0,0,513,0
5,1,1,0,0,515,0
6,1,1,0,0,516,0
7,1,1,0,0,517,0
8,1,1,0,0,518,0
9,1,1,0,0,518,0
10,1,1,0,0,518,0
11,1,1,0,0,518,0
12,1,1,0,0,518,0
13,1,1,0,0,518,0
14,1,1,0,0,518,0
15,1,1,0,0,517,0
0,1,1,0,0,517,0
1,1,1,0,0,516,0
2,1,1,0,0,514,0
3,1,1,0,0,514,0
4,1,1,0,0,514,0
5,1,1,0,0,512,0
6,1,1,0,0,512,0
7,1,1,0,0,513,0
8,1,1,0,0,513,0
9,1,1,0,0,514,0
10,1,1,0,0,515,0
11,1,1,0,0,515,0
12,1,1,0,0,516,0
13,1,1,0,0,517,0
14,1,1,0,0,518,0
15,1,1,0,0,519,0
0,1,1,0,0,519,0
1,1,1,0,0,517,0
2,1,1,0,0,517,0
3,1,1,0,0,516,0
4,1,1,0,0,516,0
5,1,1,0,0,515,0
6,1,1,0,0,513,0
7,1,1,0,0,514,0
8,1,1,0,0,513,0
9,1,1,0,0,512,0
10,1,1,0,0,512,0
11,1,1,0,0,512,0
12,1,1,0,0,512,0
13,1,1,0,0,511,0
14,1,1,0,0,511,0
15,1,1,0,0,509,0
0,1,1,0,0,506,0
1,1,1,0,0,502,0
2,1,1,0,0,496,0
3,1,1,0,0,491,0
4,1,1,0,0,485,0
5,1,1,0,0,480,0
6,1,1,0,0,474,0
7,1,1,0,0,469,0
8,1,1,0,0,465,0
9,1,1,0,0,460,0
10,1,1,0,0,456,0
11,1,1,0,0,454,0
12,1,1,0,0,454,0
13,1,1,0,0,454,0
14,1,1,0,0,451,0
15,1,1,0,0,449,0
0,1,1,0,0,447,0
1,1,1,0,0,446,0
2,1,1,0,0,446,0
3,1,1,0,0,450,0
4,1,1,0,0,455,0
5,1,1,0,0,459,0
6,1,1,0,0,466,0
7,1,1,0,0,476,0
8,1,1,0,0,488,0
9,1,1,0,0,499,0
10,1,1,0,0,511,0
11,1,1,0,0,522,0
12,1,1,0,0,534,0
13,1,1,0,0,544,0
14,1,1,0,0,555,0
15,1,1,0,0,568,0
0,1,1,0,0,586,0
1,1,1,0,0,605,0
2,1,1,0,0,626,0
3,1,1,0,0,647,0
4,1,1,0,0,671,0
5,1,1,0,0,694,0
6,1,1,0,0,716,0
7,1,1,0,0,732,0
8,1,1,0,0,743,0
9,1,1,0,0,753,0
10,1,1,0,0,758,0
11,1,1,0,0,760,0
12,1,1,0,0,762,0
13,1,1,0,0,765,0
14,1,1,0,0,768,0
15,1,1,0,0,766,0
0,1,1,0,0,762,0
1,1,1,0,0,755,0
2,1,1,0,0,744,0
3,1,1,0,0,734,0
4,1,1,0,0,721,0
5,1,1,0,0,707,0
6,1,1,0,0,692,0
7,1,1,0,0,677,0
8,1,1,0,0,662,0
9,1,1,0,0,645,0
10,1,1,0,0,628,0
11,1,1,0,0,608,0
12,1,1,0,0,587,0
13,1,1,0,0,570,0
14,1,1,0,0,553,0
15,1,1,0,0,540,0
0,1,1,0,0,527,0
1,1,1,0,0,517,0
2,1,1,0,0,507,0
3,1,1,0,0,499,0
4,1,1,0,0,491,0
5,1,1,0,0,483,0
6,1,1,0,0,476,0
7,1,1,0,0,472,0
8,1,1,0,0,468,0
9,1,1,0,0,467,0
10,1,1,0,0,464,0
11,1,1,0,0,465,0
12,1,1,0,0,465,0
13,1,1,0,0,467,0
14,1,1,0,0,468,0
15,1,1,0,0,470,0
0,1,1,0,0,471,0
1,1,1,0,0,473,0
2,1,1,0,0,474,0
3,1,1,0,0,475,0
4,1,1,0,0,474,0
5,1,1,0,0,475,0
6,1,1,0,0,473,0
7,1,1,0,0,471,0
8,1,1,0,0,471,0
9,1,1,0,0,469,0
10,1,1,0,0,468,0
11,1,1,0,0,466,0
12,1,1,0,0,466,0
13,1,1,0,0,464,0
14,1,1,0,0,463,0
15,1,1,0,0,464,0
0,1,1,0,0,464,0
1,1,1,0,0,465,0
2,1,1,0,0,466,0
3,1,1,0,0,467,0
4,1,1,0,0,466,0
5,1,1,0,0,466,0
6,1,1,0,0,467,0
7,1,1,0,0,468,0
8,1,1,0,0,467,0
9,1,1,0,0,466,0
10,1,1,0,0,465,0
11,1,1,0,0,464,0
12,1,1,0,0,463,0
13,1,1,0,0,462,0
14,1,1,0,0,461,0
15,1,1,0,0,461,0
0,1,1,0,0,460,0
1,1,1,0,0,460,0
2,1,1,0,0,459,0
3,1,1,0,0,459,0
4,1,1,0,0,459,0
5,1,1,0,0,459,0
6,1,1,0,0,461,0
7,1,1,0,0,462,0
8,1,1,0,0,463,0
9,1,1,0,0,463,0
10,1,1,0,0,464,0
11,1,1,0,0,465,0
12,1,1,0,0,466,0
13,1,1,0,0,465,0
14,1,1,0,0,466,0
15,1,1,0,0,467,0
0,1,1,0,0,466,0
1,1,1,0,0,464,0
2,1,1,0,0,462,0
3,1,1,0,0,462,0
4,1,1,0,0,460,0
5,1,1,0,0,460,0
6,1,1,0,0,460,0
7,1,1,0,0,460,0
8,1,1,0,0,460,0
9,1,1,0,0,460,0
10,1,1,0,0,461,0
11,1,1,0,0,463,0
12,1,1,0,0,463,0
13,1,1,0,0,463,0
14,1,1,0,0,464,0
15,1,1,0,0,464,0
0,1,1,0,0,465,0
1,1,1,0,0,465,0
2,1,1,0,0,464,0
3,1,1,0,0,463,0
4,1,1,0,0,462,0
5,1,1,0,0,463,0
6,1,1,0,0,462,0
7,1,1,0,0,462,0
8,1,1,0,0,462,0
9,1,1,0,0,463,0
10,1,1,0,0,464,0
11,1,1,0,0,464,0
12,1,1,0,0,465,0
13,1,1,0,0,467,0
14,1,1,0,0,467,0
15,1,1,0,0,469,0
0,1,1,0,0,471,0
1,1,1,0,0,472,0
2,1,1,0,0,472,0
3,1,1,0,0,472,0
4,1,1,0,0,473,0
5,1,1,0,0,473,0
6,1,1,0,0,473,0
7,1,1,0,0,473,0
8,1,1,0,0,473,0
9,1,1,0,0,471,0
10,1,1,0,0,471,0
11,1,1,0,0,471,0
12,1,1,0,0,471,0
13,1,1,0,0,471,0
14,1,1,0,0,472,0
15,1,1,0,0,472,0
0,1,1,0,0,473,0
1,1,1,0,0,474,0
2,1,1,0,0,475,0
3,1,1,0,0,476,0
4,1,1,0,0,478,0
5,1,1,0,0,479,0
6,1,1,0,0,479,0
7,1,1,0,0,480,0
8,1,1,0,0,480,0
9,1,1,0,0,479,0
10,1,1,0,0,479,0
11,1,1,0,0,479,0
12,1,1,0,0,478,0
13,1,1,0,0,477,0
14,1,1,0,0,476,0
15,1,1,0,0,476,0
0,1,1,0,0,476,0
1,1,1,0,0,476,0
2,1,1,0,0,475,0
3,1,1,0,0,476,0
4,1,1,0,0,477,0
5,1,1,0,0,478,0
6,1,1,0,0,479,0
7,1,1,0,0,480,0
8,1,1,0,0,480,0
9,1,1,0,0,481,0
10,1,1,0,0,482,0
11,1,1,0,0,483,0
12,1,1,0,0,483,0
13,1,1,0,0,483,0
14,1,1,0,0,483,0
15,1,1,0,0,483,0
0,1,1,0,0,483,0
1,1,1,0,0,483,0
2,1,1,0,0,483,0
3,1,1,0,0,483,0
4,1,1,0,0,482,0
5,1,1,0,0,481,0
6,1,1,0,0,482,0
7,1,1,0,0,483,0
8,1,1,0,0,484,0
9,1,1,0,0,485,0
10,1,1,0,0,486,0
11,1,1,0,0,487,0
12,1,1,0,0,488,0
13,1,1,0,0,488,0
14,1,1,0,0,489,0
15,1,1,0,0,489,0
0,1,1,0,0,489,0
1,1,1,0,0,488,0
2,1,1,0,0,487,0
3,1,1,0,0,486,0
4,1,1,0,0,485,0
5,1,1,0,0,483,0
6,1,1,0,0,482,0
7,1,1,0,0,482,0
8,1,1,0,0,480,0
9,1,1,0,0,479,0
10,1,1,0,0,478,0
11,1,1,0,0,480,0
12,1,1,0,0,480,0
13,1,1,0,0,480,0
14,1,1,0,0,481,0
15,1,1,0,0,482,0
0,1,1,0,0,483,0
1,1,1,0,0,483,0
2,1,1,0,0,483,0
3,1,1,0,0,483,0
4,1,1,0,0,482,0
5,1,1,0,0,483,0
6,1,1,0,0,482,0
7,1,1,0,0,480,0
8,1,1,0,0,480,0
9,1,1,0,0,478,0
10,1,1,0,0,476,0
11,1,1,0,0,476,0
12,1,1,0,0,474,0
13,1,1,0,0,474,0
14,1,1,0,0,473,0
15,1,1,0,0,472,0
0,1,1,0,0,473,0
1,1,1,0,0,472,0
2,1,1,0,0,473,0
3,1,1,0,0,473,0
4,1,1,0,0,473,0
5,1,1,0,0,474,0
6,1,1,0,0,473,0
7,1,1,0,0,472,0
8,1,1,0,0,472,0
9,1,1,0,0,471,0
10,1,1,0,0,472,0
11,1,1,0,0,470,0
12,1,1,0,0,470,0
13,1,1,0,0,469,0
14,1,1,0,0,469,0
15,1,1,0,0,468,0
0,1,1,0,0,467,0
1,1,1,0,0,467,0
2,1,1,0,0,467,0
3,1,1,0,0,467,0
4,1,1,0,0,467,0
5,1,1,0,0,468,0
6,1,1,0,0,470,0
7,1,1,0,0,471,0
8,1,1,0,0,472,0
9,1,1,0,0,474,0
10,1,1,0,0,475,0
11,1,1,0,0,476,0
12,1,1,0,0,476,0
13,1,1,0,0,476,0
14,1,1,0,0,475,0
15,1,1,0,0,474,0
0,1,1,0,0,475,0
1,1,1,0,0,475,0
2,1,1,0,0,475,0
3,1,1,0,0,476,0
4,1,1,0,0,476,0
5,1,1,0,0,477,0
6,1,1,0,0,478,0
7,1,1,0,0,480,0
8,1,1,0,0,481,0
9,1,1,0,0,484,0
10,1,1,0,0,487,0
11,1,1,0,0,490,0
12,1,1,0,0,492,0
13,1,1,0,0,494,0
14,1,1,0,0,495,0
15,1,1,0,0,496,0
0,1,1,0,0,499,0
1,1,1,0,0,500,0
2,1,1,0,0,501,0
3,1,1,0,0,502,0
4,1,1,0,0,504,0
5,1,1,0,0,504,0
6,1,1,0,0,505,0
7,1,1,0,0,506,0
8,1,1,0,0,507,0
9,1,1,0,0,508,0
10,1,1,0,0,510,0
11,1,1,0,0,512,0
12,1,1,0,0,513,0
13,1,1,0,0,516,0
14,1,1,0,0,520,0
15,1,1,0,0,523,0
0,1,1,0,0,525,0
1,1,1,0,0,527,0
2,1,1,0,0,529,0
3,1,1,0,0,532,0
4,1,1,0,0,534,0
5,1,1,0,0,536,0
6,1,1,0,0,537,0
7,1,1,0,0,537,0
8,1,1,0,0,537,0
9,1,1,0,0,537,0
10,1,1,0,0,537,0
11,1,1,0,0,540,0
12,1,1,0,0,540,0
13,1,1,0,0,540,0
14,1,1,0,0,540,0
15,1,1,0,0,542,0
0,1,1,0,0,543,0
1,1,1,0,0,544,0
2,1,1,0,0,545,0
3,1,1,0,0,547,0
4,1,1,0,0,549,0
5,1,1,0,0,550,0
6,1,1,0,0,551,0
7,1,1,0,0,551,0
8,1,1,0,0,553,0
9,1,1,0,0,554,0
10,1,1,0,0,555,0
11,1,1,0,0,554,0
12,1,1,0,0,554,0
13,1,1,0,0,553,0
14,1,1,0,0,553,0
15,1,1,0,0,553,0
0,1,1,0,0,553,0
1,1,1,0,0,552,0
2,1,1,0,0,553,0
3,1,1,0,0,552,0
4,1,1,0,0,552,0
5,1,1,0,0,553,0
6,1,1,0,0,555,0
7,1,1,0,0,555,0
8,1,1,0,0,557,0
9,1,1,0,0,558,0
10,1,1,0,0,558,0
11,1,1,0,0,558,0
12,1,1,0,0,558,0
13,1,1,0,0,558,0
14,1,1,0,0,556,0
15,1,1,0,0,555,0
0,1,1,0,0,555,0
1,1,1,0,0,553,0
2,1,1,0,0,551,0
3,1,1,0,0,551,0
4,1,1,0,0,551,0
5,1,1,0,0,551,0
6,1,1,0,0,552,0
7,1,1,0,0,552,0
8,1,1,0,0,551,0
9,1,1,0,0,552,0
10,1,1,0,0,553,0
11,1,1,0,0,553,0
12,1,1,0,0,553,0
13,1,1,0,0,553,0
14,1,1,0,0,553,0
15,1,1,0,0,553,0
0,1,1,0,0,553,0
1,1,1,0,0,554,0
2,1,1,0,0,552,0
3,1,1,0,0,551,0
4,1,1,0,0,548,0
5,1,1,0,0,547,0
6,1,1,0,0,546,0
7,1,1,0,0,545,0
8,1,1,0,0,544,0
9,1,1,0,0,544,0
10,1,1,0,0,543,0
11,1,1,0,0,542,0
12,1,1,0,0,542,0
13,1,1,0,0,542,0
14,1,1,0,0,542,0
15,1,1,0,0,543,0
0,1,1,0,0,543,0
1,1,1,0,0,543,0
2,1,1,0,0,544,0
3,1,1,0,0,544,0
4,1,1,0,0,544,0
5,1,1,0,0,544,0
6,1,1,0,0,544,0
7,1,1,0,0,542,0
8,1,1,0,0,541,0
9,1,1,0,0,540,0
10,1,1,0,0,539,0
11,1,1,0,0,538,0
12,1,1,0,0,537,0
13,1,1,0,0,536,0
14,1,1,0,0,536,0
15,1,1,0,0,536,0
0,1,1,0,0,537,0
1,1,1,0,0,537,0
2,1,1,0,0,538,0
3,1,1,0,0,539,0
4,1,1,0,0,540,0
5,1,1,0,0,540,0
6,1,1,0,0,540,0
7,1,1,0,0,541,0
8,1,1,0,0,540,0
9,1,1,0,0,540,0
10,1,1,0,0,539,0
11,1,1,0,0,537,0
12,1,1,0,0,536,0
13,1,1,0,0,535,0
14,1,1,0,0,535,0
15,1,1,0,0,534,0
0,1,1,0,0,533,0
1,1,1,0,0,532,0
2,1,1,0,0,532,0
3,1,1,0,0,532,0
4,1,1,0,0,530,0
5,1,1,0,0,531,0
6,1,1,0,0,532,0
7,1,1,0,0,532,0
8,1,1,0,0,532,0
9,1,1,0,0,533,0
10,1,1,0,0,531,0
11,1,1,0,0,532,0
12,1,1,0,0,532,0
13,1,1,0,0,532,0
14,1,1,0,0,531,0
15,1,1,0,0,529,0
0,1,1,0,0,529,0
1,1,1,0,0,527,0
2,1,1,0,0,525,0
3,1,1,0,0,524,0
4,1,1,0,0,524,0
5,1,1,0,0,524,0
6,1,1,0,0,522,0
7,1,1,0,0,521,0
8,1,1,0,0,521,0
9,1,1,0,0,522,0
10,1,1,0,0,523,0
11,1,1,0,0,524,0
12,1,1,0,0,524,0
13,1,1,0,0,525,0
14,1,1,0,0,525,0
15,1,1,0,0,525,0
0,1,1,0,0,524,0
1,1,1,0,0,525,0
2,1,1,0,0,525,0
3,1,1,0,0,523,0
4,1,1,0,0,522,0
5,1,1,0,0,519,0
6,1,1,0,0,519,0
7,1,1,0,0,520,0
8,1,1,0,0,519,0
9,1,1,0,0,519,0
10,1,1,0,0,518,0
11,1,1,0,0,517,0
12,1,1,0,0,517,0
13,1,1,0,0,517,0
14,1,1,0,0,518,0
15,1,1,0,0,519,0
0,1,1,0,0,519,0
1,1,1,0,0,520,0
2,1,1,0,0,520,0
3,1,1,0,0,520,0
4,1,1,0,0,519,0
5,1,1,0,0,520,0
6,1,1,0,0,519,0
7,1,1,0,0,519,0
8,1,1,0,0,518,0
9,1,1,0,0,516,0
10,1,1,0,0,515,0
11,1,1,0,0,515,0
12,1,1,0,0,514,0
13,1,1,0,0,514,0
14,1,1,0,0,513,0
15,1,1,0,0,514,0
0,1,1,0,0,514,0
1,1,1,0,0,515,0
2,1,1,0,0,516,0
3,1,1,0,0,518,0
4,1,1,0,0,519,0
5,1,1,0,0,519,0
6,1,1,0,0,518,0
7,1,1,0,0,519,0
8,1,1,0,0,518,0
9,1,1,0,0,518,0
10,1,1,0,0,517,0
11,1,1,0,0,517,0
12,1,1,0,0,516,0
13,1,1,0,0,516,0
14,1,1,0,0,516,0
15,1,1,0,0,514,0
0,1,1,0,0,513,0
1,1,1,0,0,514,0
2,1,1,0,0,513,0
3,1,1,0,0,513,0
4,1,1,0,0,513,0
5,1,1,0,0,514,0
6,1,1,0,0,515,0
7,1,1,0,0,516,0
8,1,1,0,0,517,0
9,1,1,0,0,519,0
10,1,1,0,0,518,0
11,1,1,0,0,518,0
12,1,1,0,0,518,0
13,1,1,0,0,518,0
14,1,1,0,0,516,0
15,1,1,0,0,516,0
0,1,1,0,0,516,0
1,1,1,0,0,515,0
2,1,1,0,0,515,0
3,1,1,0,0,514,0
4,1,1,0,0,512,0
5,1,1,0,0,512,0
6,1,1,0,0,513,0
7,1,1,0,0,512,0
8,1,1,0,0,513,0
9,1,1,0,0,513,0
10,1,1,0,0,515,0
11,1,1,0,0,517,0
12,1,1,0,0,518,0
13,1,1,0,0,519,0
14,1,1,0,0,519,0
15,1,1,0,0,519,0
0,1,1,0,0,519,0
1,1,1,0,0,519,0
2,1,1,0,0,519,0
3,1,1,0,0,517,0
4,1,1,0,0,517,0
5,1,1,0,0,515,0
6,1,1,0,0,515,0
7,1,1,0,0,514,0
8,1,1,0,0,514,0
9,1,1,0,0,514,0
10,1,1,0,0,514,0
11,1,1,0,0,513,0
12,1,1,0,0,513,0
13,1,1,0,0,513,0
14,1,1,0,0,515,0
15,1,1,0,0,515,0
0,1,1,0,0,516,0
1,1,1,0,0,517,0
2,1,1,0,0,517,0
3,1,1,0,0,518,0
4,1,1,0,0,518,0
5,1,1,0,0,518,0
6,1,1,0,0,516,0
7,1,1,0,0,515,0
8,1,1,0,0,515,0
9,1,1,0,0,515,0
10,1,1,0,0,515,0
11,1,1,0,0,515,0
12,1,1,0,0,513,0
13,1,1,0,0,513,0
14,1,1,0,0,513,0
15,1,1,0,0,512,0
0,1,1,0,0,512,0
1,1,1,0,0,513,0
2,1,1,0,0,515,0
3,1,1,0,0,515,0
4,1,1,0,0,517,0
5,1,1,0,0,517,0
6,1,1,0,0,516,0
7,1,1,0,0,516,0
8,1,1,0,0,517,0
9,1,1,0,0,517,0
10,1,1,0,0,515,0
11,1,1,0,0,515,0
12,1,1,0,0,514,0
13,1,1,0,0,514,0
14,1,1,0,0,513,0
15,1,1,0,0,513,0
0,1,1,0,0,512,0
1,1,1,0,0,512,0
2,1,1,0,0,511,0
3,1,1,0,0,512,0
4,1,1,0,0,512,0
5,1,1,0,0,513,0
6,1,1,0,0,514,0
7,1,1,0,0,514,0
8,1,1,0,0,514,0
9,1,1,0,0,515,0
10,1,1,0,0,515,0
11,1,1,0,0,517,0
12,1,1,0,0,518,0
13,1,1,0,0,516,0
14,1,1,0,0,515,0
15,1,1,0,0,514,0
0,1,1,0,0,514,0
1,1,1,0,0,513,0
2,1,1,0,0,512,0
3,1,1,0,0,512,0
4,1,1,0,0,510,0
5,1,1,0,0,509,0
6,1,1,0,0,509,0
7,1,1,0,0,510,0
8,1,1,0,0,510,0
9,1,1,0,0,512,0
10,1,1,0,0,513,0
11,1,1,0,0,515,0
12,1,1,0,0,515,0
13,1,1,0,0,516,0
14,1,1,0,0,516,0
15,1,1,0,0,515,0
0,1,1,0,0,515,0
1,1,1,0,0,516,0
2,1,1,0,0,515,0
3,1,1,0,0,514,0
4,1,1,0,0,515,0
5,1,1,0,0,514,0
6,1,1,0,0,512,0
7,1,1,0,0,512,0
8,1,1,0,0,511,0
9,1,1,0,0,512,0
10,1,1,0,0,512,0
11,1,1,0,0,513,0
12,1,1,0,0,513,0
13,1,1,0,0,514,0
14,1,1,0,0,516,0
15,1,1,0,0,516,0
0,1,1,0,0,517,0
1,1,1,0,0,517,0
2,1,1,0,0,516,0
3,1,1,0,0,516,0
4,1,1,0,0,517,0
5,1,1,0,0,517,0
6,1,1,0,0,516,0
7,1,1,0,0,514,0
8,1,1,0,0,514,0
9,1,1,0,0,513,0
10,1,1,0,0,512,0
11,1,1,0,0,510,0
12,1,1,0,0,510,0
13,1,1,0,0,510,0
14,1,1,0,0,509,0
15,1,1,0,0,510,0
0,1,1,0,0,511,0
1,1,1,0,0,512,0
2,1,1,0,0,513,0
3,1,1,0,0,514,0
4,1,1,0,0,515,0
5,1,1,0,0,515,0
6,1,1,0,0,514,0
7,1,1,0,0,515,0
8,1,1,0,0,516,0
9,1,1,0,0,516,0
10,1,1,0,0,515,0
11,1,1,0,0,513,0
12,1,1,0,0,512,0
13,1,1,0,0,512,0
14,1,1,0,0,511,0
15,1,1,0,0,512,0
0,1,1,0,0,511,0
1,1,1,0,0,511,0
2,1,1,0,0,510,0
3,1,1,0,0,510,0
4,1,1,0,0,509,0
5,1,1,0,0,510,0
6,1,1,0,0,512,0
7,1,1,0,0,514,0
8,1,1,0,0,515,0
9,1,1,0,0,515,0
10,1,1,0,0,515,0
11,1,1,0,0,515,0
12,1,1,0,0,516,0
13,1,1,0,0,516,0
14,1,1,0,0,515,0
15,1,1,0,0,514,0
0,1,1,0,0,513,0
1,1,1,0,0,512,0
2,1,1,0,0,511,0
3,1,1,0,0,511,0
4,1,1,0,0,510,0
5,1,1,0,0,509,0
6,1,1,0,0,509,0
7,1,1,0,0,509,0
8,1,1,0,0,510,0
9,1,1,0,0,511,0
10,1,1,0,0,512,0
11,1,1,0,0,513,0
12,1,1,0,0,513,0
13,1,1,0,0,513,0
14,1,1,0,0,514,0
15,1,1,0,0,515,0
0,1,1,0,0,516,0
1,1,1,0,0,515,0
2,1,1,0,0,515,0
3,1,1,0,0,513,0
4,1,1,0,0,513,0
5,1,1,0,0,512,0
6,1,1,0,0,511,0
7,1,1,0,0,510,0
8,1,1,0,0,510,0
9,1,1,0,0,509,0
10,1,1,0,0,508,0
11,1,1,0,0,507,0
12,1,1,0,0,509,0
13,1,1,0,0,510,0
14,1,1,0,0,511,0
15,1,1,0,0,512,0
0,1,1,0,0,512,0
1,1,1,0,0,513,0
2,1,1,0,0,514,0
3,1,1,0,0,514,0
4,1,1,0,0,514,0
5,1,1,0,0,513,0
6,1,1,0,0,512,0
7,1,1,0,0,511,0
8,1,1,0,0,510,0
9,1,1,0,0,510,0
10,1,1,0,0,510,0
11,1,1,0,0,509,0
12,1,1,0,0,508,0
13,1,1,0,0,508,0
14,1,1,0,0,508,0
15,1,1,0,0,508,0
0,1,1,0,0,508,0
1,1,1,0,0,509,0
2,1,1,0,0,510,0
3,1,1,0,0,511,0
4,1,1,0,0,511,0
5,1,1,0,0,513,0
6,1,1,0,0,512,0
7,1,1,0,0,512,0
8,1,1,0,0,513,0
9,1,1,0,0,512,0
10,1,1,0,0,513,0
11,1,1,0,0,512,0
12,1,1,0,0,511,0
13,1,1,0,0,510,0
14,1,1,0,0,509,0
15,1,1,0,0,508,0
0,1,1,0,0,508,0
1,1,1,0,0,508,0
2,1,1,0,0,508,0
3,1,1,0,0,509,0
4,1,1,0,0,510,0
5,1,1,0,0,510,0
6,1,1,0,0,511,0
7,1,1,0,0,512,0
8,1,1,0,0,514,0
9,1,1,0,0,515,0
10,1,1,0,0,515,0
11,1,1,0,0,516,0
12,1,1,0,0,516,0
13,1,1,0,0,516,0
14,1,1,0,0,516,0
15,1,1,0,0,514,0
0,1,1,0,0,512,0
1,1,1,0,0,511,0
2,1,1,0,0,510,0
3,1,1,0,0,510,0
4,1,1,0,0,510,0
5,1,1,0,0,510,0
6,1,1,0,0,510,0
7,1,1,0,0,510,0
8,1,1,0,0,510,0
9,1,1,0,0,510,0
10,1,1,0,0,511,0
11,1,1,0,0,512,0
12,1,1,0,0,512,0
13,1,1,0,0,513,0
14,1,1,0,0,513,0
15,1,1,0,0,513,0
0,1,1,0,0,513,0
1,1,1,0,0,514,0
2,1,1,0,0,514,0
3,1,1,0,0,513,0
4,1,1,0,0,512,0
5,1,1,0,0,512,0
6,1,1,0,0,513,0
7,1,1,0,0,513,0
8,1,1,0,0,511,0
9,1,1,0,0,510,0
10,1,1,0,0,510,0
11,1,1,0,0,510,0
12,1,1,0,0,511,0
13,1,1,0,0,512,0
14,1,1,0,0,513,0
15,1,1,0,0,514,0
0,1,1,0,0,515,0
1,1,1,0,0,515,0
2,1,1,0,0,515,0
3,1,1,0,0,515,0
4,1,1,0,0,515,0
5,1,1,0,0,515,0
6,1,1,0,0,514,0
7,1,1,0,0,513,0
8,1,1,0,0,512,0
9,1,1,0,0,511,0
10,1,1,0,0,510,0
11,1,1,0,0,510,0
12,1,1,0,0,510,0
13,1,1,0,0,509,0
14,1,1,0,0,508,0
15,1,1,0,0,508,0
0,1,1,0,0,508,0
1,1,1,0,0,509,0
2,1,1,0,0,510,0
3,1,1,0,0,511,0
4,1,1,0,0,512,0
5,1,1,0,0,512,0
6,1,1,0,0,513,0
7,1,1,0,0,514,0
8,1,1,0,0,514,0
9,1,1,0,0,515,0
10,1,1,0,0,513,0
11,1,1,0,0,512,0
12,1,1,0,0,512,0
13,1,1,0,0,510,0
14,1,1,0,0,510,0
15,1,1,0,0,510,0
0,1,1,0,0,509,0
1,1,1,0,0,508,0
2,1,1,0,0,509,0
3,1,1,0,0,509,0
4,1,1,0,0,510,0
5,1,1,0,0,512,0
6,1,1,0,0,514,0
7,1,1,0,0,513,0
8,1,1,0,0,514,0
9,1,1,0,0,515,0
10,1,1,0,0,515,0
11,1,1,0,0,516,0
12,1,1,0,0,515,0
13,1,1,0,0,515,0
14,1,1,0,0,515,0
15,1,1,0,0,514,0
0,1,1,0,0,514,0
1,1,1,0,0,512,0
2,1,1,0,0,511,0
3,1,1,0,0,510,0
4,1,1,0,0,508,0
5,1,1,0,0,509,0
6,1,1,0,0,509,0
7,1,1,0,0,508,0
8,1,1,0,0,506,0
9,1,1,0,0,506,0
10,1,1,0,0,506,0
11,1,1,0,0,507,0
12,1,1,0,0,509,0
13,1,1,0,0,510,0
14,1,1,0,0,512,0
15,1,1,0,0,511,0
0,1,1,0,0,512,0
1,1,1,0,0,512,0
2,1,1,0,0,513,0
3,1,1,0,0,513,0
4,1,1,0,0,512,0
5,1,1,0,0,511,0
6,1,1,0,0,510,0
7,1,1,0,0,509,0
8,1,1,0,0,509,0
9,1,1,0,0,509,0
10,1,1,0,0,510,0
11,1,1,0,0,510,0
12,1,1,0,0,509,0
13,1,1,0,0,510,0
14,1,1,0,0,510,0
15,1,1,0,0,511,0
0,1,1,0,0,511,0
1,1,1,0,0,512,0
2,1,1,0,0,512,0
3,1,1,0,0,512,0
4,1,1,0,0,512,0
5,1,1,0,0,512,0
6,1,1,0,0,511,0
7,1,1,0,0,510,0
8,1,1,0,0,508,0
9,1,1,0,0,505,0
10,1,1,0,0,504,0
11,1,1,0,0,502,0
12,1,1,0,0,501,0
13,1,1,0,0,501,0
14,1,1,0,0,500,0
15,1,1,0,0,499,0
0,1,1,0,0,500,0
1,1,1,0,0,501,0
2,1,1,0,0,503,0
3,1,1,0,0,504,0
4,1,1,0,0,505,0
5,1,1,0,0,506,0
6,1,1,0,0,507,0
7,1,1,0,0,507,0
8,1,1,0,0,507,0
9,1,1,0,0,507,0
10,1,1,0,0,507,0
11,1,1,0,0,507,0
12,1,1,0,0,507,0
13,1,1,0,0,506,0
14,1,1,0,0,506,0
15,1,1,0,0,506,0
0,1,1,0,0,505,0
1,1,1,0,0,504,0
2,1,1,0,0,504,0
3,1,1,0,0,505,0
4,1,1,0,0,505,0
5,1,1,0,0,507,0
6,1,1,0,0,508,0
7,1,1,0,0,509,0
8,1,1,0,0,510,0
9,1,1,0,0,511,0
10,1,1,0,0,512,0
11,1,1,0,0,513,0
12,1,1,0,0,513,0
13,1,1,0,0,515,0
14,1,1,0,0,515,0
15,1,1,0,0,515,0
0,1,1,0,0,515,0
1,1,1,0,0,514,0
2,1,1,0,0,513,0
3,1,1,0,0,512,0
4,1,1,0,0,513,0
5,1,1,0,0,512,0
6,1,1,0,0,511,0
7,1,1,0,0,511,0
8,1,1,0,0,511,0
9,1,1,0,0,513,0
10,1,1,0,0,515,0
11,1,1,0,0,515,0
12,1,1,0,0,516,0
13,1,1,0,0,517,0
14,1,1,0,0,518,0
15,1,1,0,0,518,0
0,1,1,0,0,518,0
1,1,1,0,0,517,0
2,1,1,0,0,519,0
3,1,1,0,0,517,0
4,1,1,0,0,516,0
5,1,1,0,0,514,0
6,1,1,0,0,513,0
7,1,1,0,0,514,0
8,1,1,0,0,513,0
9,1,1,0,0,513,0
10,1,1,0,0,512,0
11,1,1,0,0,512,0
12,1,1,0,0,513,0
13,1,1,0,0,513,0
14,1,1,0,0,514,0
15,1,1,0,0,516,0
0,1,1,0,0,516,0
1,1,1,0,0,516,0
2,1,1,0,0,516,0
3,1,1,0,0,516,0
4,1,1,0,0,516,0
5,1,1,0,0,515,0
6,1,1,0,0,515,0
7,1,1,0,0,514,0
8,1,1,0,0,514,0
9,1,1,0,0,512,0
10,1,1,0,0,510,0
11,1,1,0,0,510,0
12,1,1,0,0,508,0
13,1,1,0,0,508,0
14,1,1,0,0,509,0
15,1,1,0,0,510,0
0,1,1,0,0,509,0
1,1,1,0,0,510,0
2,1,1,0,0,511,0
3,1,1,0,0,512,0
4,1,1,0,0,512,0
5,1,1,0,0,512,0
6,1,1,0,0,512,0
7,1,1,0,0,512,0
8,1,1,0,0,513,0
9,1,1,0,0,513,0
10,1,1,0,0,513,0
11,1,1,0,0,513,0
12,1,1,0,0,512,0
13,1,1,0,0,511,0
14,1,1,0,0,510,0
15,1,1,0,0,510,0
0,1,1,0,0,510,0
1,1,1,0,0,510,0
2,1,1,0,0,509,0
3,1,1,0,0,509,0
4,1,1,0,0,509,0
5,1,1,0,0,510,0
6,1,1,0,0,512,0
7,1,1,0,0,512,0
8,1,1,0,0,512,0
9,1,1,0,0,511,0
10,1,1,0,0,511,0
11,1,1,0,0,511,0
12,1,1,0,0,511,0
13,1,1,0,0,512,0
14,1,1,0,0,511,0
15,1,1,0,0,510,0
0,1,1,0,0,509,0
1,1,1,0,0,508,0
2,1,1,0,0,508,0
3,1,1,0,0,507,0
4,1,1,0,0,505,0
5,1,1,0,0,504,0
6,1,1,0,0,503,0
7,1,1,0,0,502,0
8,1,1,0,0,498,0
9,1,1,0,0,494,0
10,1,1,0,0,490,0
11,1,1,0,0,486,0
12,1,1,0,0,482,0
13,1,1,0,0,479,0
14,1,1,0,0,475,0
15,1,1,0,0,471,0
0,1,1,0,0,467,0
1,1,1,0,0,464,0
2,1,1,0,0,461,0
3,1,1,0,0,457,0
4,1,1,0,0,456,0
5,1,1,0,0,455,0
6,1,1,0,0,455,0
7,1,1,0,0,454,0
8,1,1,0,0,452,0
9,1,1,0,0,451,0
10,1,1,0,0,452,0
11,1,1,0,0,455,0
12,1,1,0,0,461,0
13,1,1,0,0,467,0
14,1,1,0,0,475,0
15,1,1,0,0,485,0
0,1,1,0,0,497,0
1,1,1,0,0,511,0
2,1,1,0,0,523,0
3,1,1,0,0,535,0
4,1,1,0,0,547,0
5,1,1,0,0,558,0
6,1,1,0,0,568,0
7,1,1,0,0,581,0
8,1,1,0,0,597,0
9,1,1,0,0,613,0
10,1,1,0,0,632,0
11,1,1,0,0,650,0
12,1,1,0,0,669,0
13,1,1,0,0,687,0
14,1,1,0,0,703,0
15,1,1,0,0,716,0
0,1,1,0,0,728,0
1,1,1,0,0,736,0
2,1,1,0,0,741,0
3,1,1,0,0,744,0
4,1,1,0,0,745,0
5,1,1,0,0,748,0
6,1,1,0,0,750,0
7,1,1,0,0,750,0
8,1,1,0,0,746,0
9,1,1,0,0,738,0
10,1,1,0,0,729,0
11,1,1,0,0,718,0
12,1,1,0,0,705,0
13,1,1,0,0,691,0
14,1,1,0,0,675,0
15,1,1,0,0,660,0
0,1,1,0,0,645,0
1,1,1,0,0,630,0
2,1,1,0,0,614,0
3,1,1,0,0,596,0
4,1,1,0,0,579,0
5,1,1,0,0,563,0
6,1,1,0,0,547,0
7,1,1,0,0,534,0
8,1,1,0,0,523,0
9,1,1,0,0,514,0
10,1,1,0,0,505,0
11,1,1,0,0,498,0
12,1,1,0,0,491,0
13,1,1,0,0,484,0
14,1,1,0,0,478,0
15,1,1,0,0,473,0
0,1,1,0,0,468,0
1,1,1,0,0,465,0
2,1,1,0,0,462,0
3,1,1,0,0,460,0
4,1,1,0,0,459,0
5,1,1,0,0,459,0
6,1,1,0,0,461,0
7,1,1,0,0,462,0
8,1,1,0,0,464,0
9,1,1,0,0,465,0
10,1,1,0,0,467,0
11,1,1,0,0,469,0
12,1,1,0,0,470,0
13,1,1,0,0,471,0
14,1,1,0,0,472,0
15,1,1,0,0,472,0
0,1,1,0,0,471,0
1,1,1,0,0,471,0
2,1,1,0,0,471,0
3,1,1,0,0,470,0
4,1,1,0,0,469,0
5,1,1,0,0,467,0
6,1,1,0,0,465,0
7,1,1,0,0,463,0
8,1,1,0,0,463,0
9,1,1,0,0,463,0
10,1,1,0,0,462,0
11,1,1,0,0,462,0
12,1,1,0,0,463,0
13,1,1,0,0,463,0
14,1,1,0,0,464,0
15,1,1,0,0,464,0
0,1,1,0,0,464,0
1,1,1,0,0,464,0
2,1,1,0,0,464,0
3,1,1,0,0,465,0
4,1,1,0,0,465,0
5,1,1,0,0,465,0
6,1,1,0,0,464,0
7,1,1,0,0,463,0
8,1,1,0,0,463,0
9,1,1,0,0,463,0
10,1,1,0,0,461,0
11,1,1,0,0,462,0
12,1,1,0,0,460,0
13,1,1,0,0,461,0
14,1,1,0,0,461,0
15,1,1,0,0,461,0
0,1,1,0,0,462,0
1,1,1,0,0,463,0
2,1,1,0,0,464,0
3,1,1,0,0,464,0
4,1,1,0,0,465,0
5,1,1,0,0,466,0
6,1,1,0,0,466,0
7,1,1,0,0,466,0
8,1,1,0,0,467,0
9,1,1,0,0,467,0
10,1,1,0,0,466,0
11,1,1,0,0,466,0
12,1,1,0,0,465,0
13,1,1,0,0,465,0
14,1,1,0,0,464,0
15,1,1,0,0,463,0
0,1,1,0,0,462,0
1,1,1,0,0,462,0
2,1,1,0,0,463,0
3,1,1,0,0,463,0
4,1,1,0,0,463,0
5,1,1,0,0,464,0
6,1,1,0,0,465,0
7,1,1,0,0,466,0
8,1,1,0,0,466,0
9,1,1,0,0,467,0
10,1,1,0,0,467,0
11,1,1,0,0,469,0
12,1,1,0,0,468,0
13,1,1,0,0,469,0
14,1,1,0,0,469,0
15,1,1,0,0,468,0
0,1,1,0,0,468,0
1,1,1,0,0,468,0
2,1,1,0,0,468,0
3,1,1,0,0,467,0
4,1,1,0,0,467,0
5,1,1,0,0,467,0
6,1,1,0,0,466,0
7,1,1,0,0,467,0
8,1,1,0,0,469,0
9,1,1,0,0,471,0
10,1,1,0,0,472,0
11,1,1,0,0,474,0
12,1,1,0,0,474,0
13,1,1,0,0,475,0
14,1,1,0,0,476,0
15,1,1,0,0,477,0
0,1,1,0,0,478,0
1,1,1,0,0,478,0
2,1,1,0,0,478,0
3,1,1,0,0,477,0
4,1,1,0,0,477,0
5,1,1,0,0,476,0
6,1,1,0,0,476,0
7,1,1,0,0,476,0
8,1,1,0,0,475,0
9,1,1,0,0,476,0
10,1,1,0,0,476,0
11,1,1,0,0,476,0
12,1,1,0,0,476,0
13,1,1,0,0,478,0
14,1,1,0,0,480,0
15,1,1,0,0,481,0
0,1,1,0,0,483,0
1,1,1,0,0,483,0
2,1,1,0,0,484,0
3,1,1,0,0,484,0
4,1,1,0,0,484,0
5,1,1,0,0,485,0
6,1,1,0,0,484,0
7,1,1,0,0,484,0
8,1,1,0,0,484,0
9,1,1,0,0,482,0
10,1,1,0,0,482,0
11,1,1,0,0,482,0
12,1,1,0,0,482,0
13,1,1,0,0,481,0
14,1,1,0,0,481,0
15,1,1,0,0,482,0
0,1,1,0,0,483,0
1,1,1,0,0,484,0
2,1,1,0,0,486,0
3,1,1,0,0,486,0
4,1,1,0,0,487,0
5,1,1,0,0,487,0
6,1,1,0,0,487,0
7,1,1,0,0,487,0
8,1,1,0,0,487,0
9,1,1,0,0,488,0
10,1,1,0,0,487,0
11,1,1,0,0,486,0
12,1,1,0,0,487,0
13,1,1,0,0,486,0
14,1,1,0,0,485,0
15,1,1,0,0,485,0
0,1,1,0,0,484,0
1,1,1,0,0,484,0
2,1,1,0,0,485,0
3,1,1,0,0,486,0
4,1,1,0,0,487,0
5,1,1,0,0,487,0
6,1,1,0,0,488,0
7,1,1,0,0,489,0
8,1,1,0,0,491,0
9,1,1,0,0,491,0
10,1,1,0,0,492,0
11,1,1,0,0,492,0
12,1,1,0,0,491,0
13,1,1,0,0,491,0
14,1,1,0,0,490,0
15,1,1,0,0,490,0
0,1,1,0,0,489,0
1,1,1,0,0,487,0
2,1,1,0,0,487,0
3,1,1,0,0,486,0
4,1,1,0,0,485,0
5,1,1,0,0,485,0
6,1,1,0,0,484,0
7,1,1,0,0,484,0
8,1,1,0,0,484,0
9,1,1,0,0,486,0
10,1,1,0,0,487,0
11,1,1,0,0,487,0
12,1,1,0,0,487,0
13,1,1,0,0,487,0
14,1,1,0,0,487,0
15,1,1,0,0,487,0
0,1,1,0,0,487,0
1,1,1,0,0,487,0
2,1,1,0,0,486,0
3,1,1,0,0,484,0
4,1,1,0,0,483,0
5,1,1,0,0,482,0
6,1,1,0,0,481,0
7,1,1,0,0,481,0
8,1,1,0,0,480,0
9,1,1,0,0,479,0
10,1,1,0,0,479,0
11,1,1,0,0,479,0
12,1,1,0,0,479,0
13,1,1,0,0,478,0
14,1,1,0,0,480,0
15,1,1,0,0,480,0
0,1,1,0,0,481,0
1,1,1,0,0,481,0
2,1,1,0,0,483,0
3,1,1,0,0,483,0
4,1,1,0,0,484,0
5,1,1,0,0,483,0
6,1,1,0,0,482,0
7,1,1,0,0,481,0
8,1,1,0,0,480,0
9,1,1,0,0,478,0
10,1,1,0,0,476,0
11,1,1,0,0,476,0
12,1,1,0,0,477,0
13,1,1,0,0,477,0
14,1,1,0,0,476,0
15,1,1,0,0,476,0
0,1,1,0,0,477,0
1,1,1,0,0,478,0
2,1,1,0,0,479,0
3,1,1,0,0,480,0
4,1,1,0,0,482,0
5,1,1,0,0,483,0
6,1,1,0,0,483,0
7,1,1,0,0,484,0
8,1,1,0,0,485,0
9,1,1,0,0,486,0
10,1,1,0,0,486,0
11,1,1,0,0,486,0
12,1,1,0,0,487,0
13,1,1,0,0,487,0
14,1,1,0,0,487,0
15,1,1,0,0,488,0
0,1,1,0,0,489,0
1,1,1,0,0,490,0
2,1,1,0,0,491,0
3,1,1,0,0,492,0
4,1,1,0,0,494,0
5,1,1,0,0,496,0
6,1,1,0,0,500,0
7,1,1,0,0,502,0
8,1,1,0,0,503,0
9,1,1,0,0,504,0
10,1,1,0,0,506,0
11,1,1,0,0,508,0
12,1,1,0,0,510,0
13,1,1,0,0,511,0
14,1,1,0,0,512,0
15,1,1,0,0,512,0
0,1,1,0,0,513,0
1,1,1,0,0,513,0
2,1,1,0,0,514,0
3,1,1,0,0,515,0
4,1,1,0,0,516,0
5,1,1,0,0,517,0
6,1,1,0,0,518,0
7,1,1,0,0,519,0
8,1,1,0,0,522,0
9,1,1,0,0,524,0
10,1,1,0,0,527,0
11,1,1,0,0,530,0
12,1,1,0,0,531,0
13,1,1,0,0,534,0
14,1,1,0,0,536,0
15,1,1,0,0,538,0
0,1,1,0,0,539,0
1,1,1,0,0,539,0
2,1,1,0,0,540,0
3,1,1,0,0,540,0
4,1,1,0,0,541,0
5,1,1,0,0,541,0
6,1,1,0,0,540,0
7,1,1,0,0,540,0
8,1,1,0,0,541,0
9,1,1,0,0,541,0
10,1,1,0,0,542,0
11,1,1,0,0,543,0
12,1,1,0,0,544,0
13,1,1,0,0,547,0
14,1,1,0,0,548,0
15,1,1,0,0,550,0
0,1,1,0,0,550,0
1,1,1,0,0,551,0
2,1,1,0,0,552,0
3,1,1,0,0,552,0
4,1,1,0,0,553,0
5,1,1,0,0,554,0
6,1,1,0,0,553,0
7,1,1,0,0,552,0
8,1,1,0,0,551,0
9,1,1,0,0,550,0
10,1,1,0,0,549,0
11,1,1,0,0,549,0
12,1,1,0,0,548,0
13,1,1,0,0,549,0
14,1,1,0,0,549,0
15,1,1,0,0,548,0
0,1,1,0,0,548,0
1,1,1,0,0,549,0
2,1,1,0,0,551,0
3,1,1,0,0,551,0
4,1,1,0,0,552,0
5,1,1,0,0,553,0
6,1,1,0,0,552,0
7,1,1,0,0,554,0
8,1,1,0,0,555,0
9,1,1,0,0,554,0
10,1,1,0,0,553,0
11,1,1,0,0,551,0
12,1,1,0,0,551,0
13,1,1,0,0,550,0
14,1,1,0,0,548,0
15,1,1,0,0,547,0
0,1,1,0,0,547,0
1,1,1,0,0,546,0
2,1,1,0,0,545,0
3,1,1,0,0,546,0
4,1,1,0,0,546,0
5,1,1,0,0,547,0
6,1,1,0,0,548,0
7,1,1,0,0,549,0
8,1,1,0,0,549,0
9,1,1,0,0,549,0
10,1,1,0,0,548,0
11,1,1,0,0,549,0
12,1,1,0,0,550,0
13,1,1,0,0,549,0
14,1,1,0,0,548,0
15,1,1,0,0,547,0
0,1,1,0,0,546,0
1,1,1,0,0,545,0
2,1,1,0,0,542,0
3,1,1,0,0,542,0
4,1,1,0,0,541,0
5,1,1,0,0,539,0
6,1,1,0,0,538,0
7,1,1,0,0,538,0
8,1,1,0,0,537,0
9,1,1,0,0,537,0
10,1,1,0,0,538,0
11,1,1,0,0,538,0
12,1,1,0,0,538,0
13,1,1,0,0,538,0
14,1,1,0,0,539,0
15,1,1,0,0,538,0
0,1,1,0,0,538,0
1,1,1,0,0,538,0
2,1,1,0,0,538,0
3,1,1,0,0,537,0
4,1,1,0,0,536,0
5,1,1,0,0,536,0
6,1,1,0,0,534,0
7,1,1,0,0,534,0
8,1,1,0,0,533,0
9,1,1,0,0,532,0
10,1,1,0,0,533,0
11,1,1,0,0,533,0
12,1,1,0,0,532,0
13,1,1,0,0,534,0
14,1,1,0,0,536,0
15,1,1,0,0,535,0
0,1,1,0,0,536,0
1,1,1,0,0,538,0
2,1,1,0,0,539,0
3,1,1,0,0,539,0
4,1,1,0,0,539,0
5,1,1,0,0,538,0
6,1,1,0,0,537,0
7,1,1,0,0,536,0
8,1,1,0,0,535,0
9,1,1,0,0,534,0
10,1,1,0,0,532,0
11,1,1,0,0,531,0
12,1,1,0,0,531,0
13,1,1,0,0,529,0
14,1,1,0,0,528,0
15,1,1,0,0,528,0
0,1,1,0,0,528,0
1,1,1,0,0,528,0
2,1,1,0,0,528,0
3,1,1,0,0,529,0
4,1,1,0,0,530,0
5,1,1,0,0,529,0
6,1,1,0,0,529,0
7,1,1,0,0,529,0
8,1,1,0,0,529,0
9,1,1,0,0,529,0
10,1,1,0,0,528,0
11,1,1,0,0,526,0
12,1,1,0,0,525,0
13,1,1,0,0,523,0
14,1,1,0,0,521,0
15,1,1,0,0,521,0
0,1,1,0,0,521,0
1,1,1,0,0,521,0
2,1,1,0,0,520,0
3,1,1,0,0,520,0
4,1,1,0,0,521,0
5,1,1,0,0,522,0
6,1,1,0,0,522,0
7,1,1,0,0,523,0
8,1,1,0,0,523,0
9,1,1,0,0,523,0
10,1,1,0,0,524,0
11,1,1,0,0,524,0
12,1,1,0,0,524,0
13,1,1,0,0,523,0
14,1,1,0,0,522,0
15,1,1,0,0,521,0
0,1,1,0,0,520,0
1,1,1,0,0,519,0
2,1,1,0,0,518,0
3,1,1,0,0,517,0
4,1,1,0,0,517,0
5,1,1,0,0,516,0
6,1,1,0,0,515,0
7,1,1,0,0,515,0
8,1,1,0,0,518,0
9,1,1,0,0,518,0
10,1,1,0,0,519,0
11,1,1,0,0,520,0
12,1,1,0,0,520,0
13,1,1,0,0,521,0
14,1,1,0,0,521,0
15,1,1,0,0,521,0
0,1,1,0,0,520,0
1,1,1,0,0,520,0
2,1,1,0,0,520,0
3,1,1,0,0,518,0
4,1,1,0,0,516,0
5,1,1,0,0,514,0
6,1,1,0,0,512,0
7,1,1,0,0,512,0
8,1,1,0,0,512,0
9,1,1,0,0,512,0
10,1,1,0,0,511,0
11,1,1,0,0,512,0
12,1,1,0,0,512,0
13,1,1,0,0,512,0
14,1,1,0,0,513,0
15,1,1,0,0,514,0
0,1,1,0,0,515,0
1,1,1,0,0,515,0
2,1,1,0,0,515,0
3,1,1,0,0,515,0
4,1,1,0,0,515,0
5,1,1,0,0,515,0
6,1,1,0,0,515,0
7,1,1,0,0,514,0
8,1,1,0,0,513,0
9,1,1,0,0,512,0
10,1,1,0,0,510,0
11,1,1,0,0,509,0
12,1,1,0,0,508,0
13,1,1,0,0,508,0
14,1,1,0,0,508,0
15,1,1,0,0,508,0
0,1,1,0,0,509,0
1,1,1,0,0,509,0
2,1,1,0,0,511,0
3,1,1,0,0,512,0
4,1,1,0,0,512,0
5,1,1,0,0,513,0
6,1,1,0,0,514,0
7,1,1,0,0,515,0
8,1,1,0,0,515,0
9,1,1,0,0,515,0
10,1,1,0,0,514,0
11,1,1,0,0,514,0
12,1,1,0,0,513,0
13,1,1,0,0,513,0
14,1,1,0,0,512,0
15,1,1,0,0,512,0
0,1,1,0,0,512,0
1,1,1,0,0,510,0
2,1,1,0,0,510,0
3,1,1,0,0,511,0
4,1,1,0,0,511,0
5,1,1,0,0,512,0
6,1,1,0,0,513,0
7,1,1,0,0,515,0
8,1,1,0,0,515,0
9,1,1,0,0,515,0
10,1,1,0,0,516,0
11,1,1,0,0,516,0
12,1,1,0,0,517,0
13,1,1,0,0,517,0
14,1,1,0,0,516,0
15,1,1,0,0,515,0
0,1,1,0,0,515,0
1,1,1,0,0,514,0
2,1,1,0,0,513,0
3,1,1,0,0,512,0
4,1,1,0,0,512,0
5,1,1,0,0,511,0
6,1,1,0,0,510,0
7,1,1,0,0,511,0
8,1,1,0,0,510,0
9,1,1,0,0,512,0
10,1,1,0,0,512,0
11,1,1,0,0,513,0
12,1,1,0,0,514,0
13,1,1,0,0,515,0
14,1,1,0,0,516,0
15,1,1,0,0,516,0
0,1,1,0,0,516,0
1,1,1,0,0,515,0
2,1,1,0,0,514,0
3,1,1,0,0,512,0
4,1,1,0,0,512,0
5,1,1,0,0,510,0
6,1,1,0,0,510,0
7,1,1,0,0,510,0
8,1,1,0,0,510,0
9,1,1,0,0,509,0
10,1,1,0,0,509,0
11,1,1,0,0,509,0
12,1,1,0,0,509,0
13,1,1,0,0,510,0
14,1,1,0,0,511,0
15,1,1,0,0,512,0
0,1,1,0,0,512,0
1,1,1,0,0,513,0
2,1,1,0,0,513,0
3,1,1,0,0,513,0
4,1,1,0,0,514,0
5,1,1,0,0,513,0
6,1,1,0,0,513,0
7,1,1,0,0,513,0
8,1,1,0,0,512,0
9,1,1,0,0,511,0
10,1,1,0,0,509,0
11,1,1,0,0,508,0
12,1,1,0,0,508,0
13,1,1,0,0,508,0
14,1,1,0,0,507,0
15,1,1,0,0,508,0
0,1,1,0,0,508,0
1,1,1,0,0,509,0
2,1,1,0,0,511,0
3,1,1,0,0,512,0
4,1,1,0,0,512,0
5,1,1,0,0,513,0
6,1,1,0,0,513,0
7,1,1,0,0,515,0
8,1,1,0,0,515,0
9,1,1,0,0,515,0
10,1,1,0,0,514,0
11,1,1,0,0,514,0
12,1,1,0,0,513,0
13,1,1,0,0,512,0
14,1,1,0,0,511,0
15,1,1,0,0,511,0
0,1,1,0,0,511,0
1,1,1,0,0,510,0
2,1,1,0,0,510,0
3,1,1,0,0,510,0
4,1,1,0,0,509,0
5,1,1,0,0,510,0
6,1,1,0,0,512,0
7,1,1,0,0,513,0
8,1,1,0,0,514,0
9,1,1,0,0,515,0
10,1,1,0,0,514,0
11,1,1,0,0,514,0
12,1,1,0,0,513,0
13,1,1,0,0,514,0
14,1,1,0,0,513,0
15,1,1,0,0,513,0
0,1,1,0,0,512,0
1,1,1,0,0,512,0
2,1,1,0,0,511,0
3,1,1,0,0,510,0
4,1,1,0,0,510,0
5,1,1,0,0,510,0
6,1,1,0,0,509,0
7,1,1,0,0,510,0
8,1,1,0,0,511,0
9,1,1,0,0,510,0
10,1,1,0,0,512,0
11,1,1,0,0,512,0
12,1,1,0,0,512,0
13,1,1,0,0,513,0
14,1,1,0,0,513,0
15,1,1,0,0,513,0
0,1,1,0,0,513,0
1,1,1,0,0,514,0
2,1,1,0,0,513,0
3,1,1,0,0,512,0
4,1,1,0,0,511,0
5,1,1,0,0,510,0
6,1,1,0,0,509,0
7,1,1,0,0,510,0
8,1,1,0,0,509,0
9,1,1,0,0,508,0
10,1,1,0,0,509,0
11,1,1,0,0,509,0
12,1,1,0,0,509,0
13,1,1,0,0,510,0
14,1,1,0,0,512,0
15,1,1,0,0,513,0
0,1,1,0,0,513,0
1,1,1,0,0,514,0
2,1,1,0,0,514,0
3,1,1,0,0,515,0
4,1,1,0,0,516,0
5,1,1,0,0,515,0
6,1,1,0,0,515,0
7,1,1,0,0,514,0
8,1,1,0,0,513,0
9,1,1,0,0,512,0
10,1,1,0,0,511,0
11,1,1,0,0,511,0
12,1,1,0,0,510,0
13,1,1,0,0,509,0
14,1,1,0,0,509,0
15,1,1,0,0,510,0
0,1,1,0,0,510,0
1,1,1,0,0,510,0
2,1,1,0,0,512,0
3,1,1,0,0,513,0
4,1,1,0,0,514,0
5,1,1,0,0,515,0
6,1,1,0,0,515,0
7,1,1,0,0,515,0
8,1,1,0,0,516,0
9,1,1,0,0,516,0
10,1,1,0,0,515,0
11,1,1,0,0,513,0
12,1,1,0,0,513,0
13,1,1,0,0,511,0
14,1,1,0,0,510,0
15,1,1,0,0,510,0
0,1,1,0,0,509,0
1,1,1,0,0,509,0
2,1,1,0,0,509,0
3,1,1,0,0,509,0
4,1,1,0,0,509,0
5,1,1,0,0,511,0
6,1,1,0,0,512,0
7,1,1,0,0,513,0
8,1,1,0,0,513,0
9,1,1,0,0,514,0
10,1,1,0,0,514,0
11,1,1,0,0,515,0
12,1,1,0,0,514,0
13,1,1,0,0,513,0
14,1,1,0,0,513,0
15,1,1,0,0,512,0
0,1,1,0,0,512,0
1,1,1,0,0,511,0
2,1,1,0,0,510,0
3,1,1,0,0,509,0
4,1,1,0,0,508,0
5,1,1,0,0,508,0
6,1,1,0,0,508,0
7,1,1,0,0,508,0
8,1,1,0,0,509,0
9,1,1,0,0,510,0
10,1,1,0,0,511,0
11,1,1,0,0,512,0
12,1,1,0,0,513,0
13,1,1,0,0,513,0
14,1,1,0,0,514,0
15,1,1,0,0,515,0
0,1,1,0,0,515,0
1,1,1,0,0,515,0
2,1,1,0,0,515,0
3,1,1,0,0,515,0
4,1,1,0,0,514,0
5,1,1,0,0,512,0
6,1,1,0,0,511,0
7,1,1,0,0,511,0
8,1,1,0,0,510,0
9,1,1,0,0,510,0
10,1,1,0,0,509,0
11,1,1,0,0,510,0
12,1,1,0,0,510,0
13,1,1,0,0,512,0
14,1,1,0,0,513,0
15,1,1,0,0,513,0
0,1,1,0,0,514,0
1,1,1,0,0,514,0
2,1,1,0,0,515,0
3,1,1,0,0,515,0
4,1,1,0,0,516,0
5,1,1,0,0,516,0
6,1,1,0,0,515,0
7,1,1,0,0,514,0
8,1,1,0,0,514,0
9,1,1,0,0,512,0
10,1,1,0,0,512,0
11,1,1,0,0,511,0
12,1,1,0,0,510,0
13,1,1,0,0,510,0
14,1,1,0,0,509,0
15,1,1,0,0,510,0
0,1,1,0,0,511,0
1,1,1,0,0,511,0
2,1,1,0,0,512,0
3,1,1,0,0,512,0
4,1,1,0,0,513,0
5,1,1,0,0,513,0
6,1,1,0,0,513,0
7,1,1,0,0,514,0
8,1,1,0,0,515,0
9,1,1,0,0,515,0
10,1,1,0,0,514,0
11,1,1,0,0,513,0
12,1,1,0,0,512,0
13,1,1,0,0,512,0
14,1,1,0,0,511,0
15,1,1,0,0,511,0
0,1,1,0,0,510,0
1,1,1,0,0,509,0
2,1,1,0,0,509,0
3,1,1,0,0,510,0
4,1,1,0,0,510,0
5,1,1,0,0,510,0
6,1,1,0,0,511,0
7,1,1,0,0,512,0
8,1,1,0,0,513,0
9,1,1,0,0,514,0
10,1,1,0,0,515,0
11,1,1,0,0,515,0
12,1,1,0,0,514,0
13,1,1,0,0,513,0
14,1,1,0,0,513,0
15,1,1,0,0,512,0
0,1,1,0,0,513,0
1,1,1,0,0,512,0
2,1,1,0,0,511,0
3,1,1,0,0,510,0
4,1,1,0,0,510,0
5,1,1,0,0,509,0
6,1,1,0,0,508,0
7,1,1,0,0,508,0
8,1,1,0,0,509,0
9,1,1,0,0,510,0
10,1,1,0,0,511,0
11,1,1,0,0,511,0
12,1,1,0,0,512,0
13,1,1,0,0,513,0
14,1,1,0,0,513,0
15,1,1,0,0,513,0
0,1,1,0,0,514,0
1,1,1,0,0,514,0
2,1,1,0,0,513,0
3,1,1,0,0,512,0
4,1,1,0,0,512,0
5,1,1,0,0,511,0
6,1,1,0,0,510,0
7,1,1,0,0,509,0
8,1,1,0,0,508,0
9,1,1,0,0,508,0
10,1,1,0,0,508,0
11,1,1,0,0,508,0
12,1,1,0,0,508,0
13,1,1,0,0,509,0
14,1,1,0,0,510,0
15,1,1,0,0,511,0
0,1,1,0,0,512,0
1,1,1,0,0,512,0
2,1,1,0,0,513,0
3,1,1,0,0,513,0
4,1,1,0,0,514,0
5,1,1,0,0,514,0
6,1,1,0,0,513,0
7,1,1,0,0,512,0
8,1,1,0,0,511,0
9,1,1,0,0,510,0
10,1,1,0,0,509,0
11,1,1,0,0,508,0
12,1,1,0,0,507,0
13,1,1,0,0,506,0
14,1,1,0,0,507,0
15,1,1,0,0,508,0
0,1,1,0,0,508,0
1,1,1,0,0,510,0
2,1,1,0,0,511,0
3,1,1,0,0,511,0
4,1,1,0,0,512,0
5,1,1,0,0,513,0
6,1,1,0,0,513,0
7,1,1,0,0,513,0
8,1,1,0,0,514,0
9,1,1,0,0,513,0
10,1,1,0,0,512,0
11,1,1,0,0,512,0
12,1,1,0,0,512,0
13,1,1,0,0,511,0
14,1,1,0,0,510,0
15,1,1,0,0,508,0
0,1,1,0,0,508,0
1,1,1,0,0,508,0
2,1,1,0,0,508,0
3,1,1,0,0,507,0
4,1,1,0,0,507,0
5,1,1,0,0,508,0
6,1,1,0,0,510,0
7,1,1,0,0,511,0
8,1,1,0,0,511,0
9,1,1,0,0,512,0
10,1,1,0,0,511,0
11,1,1,0,0,511,0
12,1,1,0,0,511,0
13,1,1,0,0,511,0
14,1,1,0,0,511,0
15,1,1,0,0,511,0
0,1,1,0,0,510,0
1,1,1,0,0,509,0
2,1,1,0,0,508,0
3,1,1,0,0,508,0
4,1,1,0,0,507,0
5,1,1,0,0,506,0
6,1,1,0,0,507,0
7,1,1,0,0,507,0
8,1,1,0,0,508,0
9,1,1,0,0,509,0
10,1,1,0,0,511,0
11,1,1,0,0,512,0
12,1,1,0,0,513,0
13,1,1,0,0,513,0
14,1,1,0,0,514,0
15,1,1,0,0,515,0
0,1,1,0,0,515,0
1,1,1,0,0,514,0
2,1,1,0,0,513,0
3,1,1,0,0,512,0
4,1,1,0,0,511,0
5,1,1,0,0,509,0
6,1,1,0,0,508,0
7,1,1,0,0,507,0
8,1,1,0,0,506,0
9,1,1,0,0,504,0
10,1,1,0,0,504,0
11,1,1,0,0,502,0
12,1,1,0,0,502,0
13,1,1,0,0,502,0
14,1,1,0,0,504,0
15,1,1,0,0,504,0
0,1,1,0,0,505,0
1,1,1,0,0,506,0
2,1,1,0,0,507,0
3,1,1,0,0,507,0
4,1,1,0,0,507,0
5,1,1,0,0,508,0
6,1,1,0,0,508,0
7,1,1,0,0,507,0
8,1,1,0,0,506,0
9,1,1,0,0,505,0
10,1,1,0,0,505,0
11,1,1,0,0,505,0
12,1,1,0,0,504,0
13,1,1,0,0,504,0
14,1,1,0,0,503,0
15,1,1,0,0,503,0
0,1,1,0,0,503,0
1,1,1,0,0,503,0
2,1,1,0,0,504,0
3,1,1,0,0,504,0
4,1,1,0,0,505,0
5,1,1,0,0,506,0
6,1,1,0,0,507,0
7,1,1,0,0,509,0
8,1,1,0,0,509,0
9,1,1,0,0,509,0
10,1,1,0,0,508,0
11,1,1,0,0,508,0
12,1,1,0,0,508,0
13,1,1,0,0,507,0
14,1,1,0,0,506,0
15,1,1,0,0,506,0
0,1,1,0,0,506,0
1,1,1,0,0,507,0
2,1,1,0,0,507,0
3,1,1,0,0,508,0
4,1,1,0,0,509,0
5,1,1,0,0,510,0
6,1,1,0,0,512,0
7,1,1,0,0,514,0
8,1,1,0,0,515,0
9,1,1,0,0,515,0
10,1,1,0,0,516,0
11,1,1,0,0,516,0
12,1,1,0,0,516,0
13,1,1,0,0,517,0
14,1,1,0,0,516,0
15,1,1,0,0,515,0
0,1,1,0,0,515,0
1,1,1,0,0,513,0
2,1,1,0,0,512,0
3,1,1,0,0,511,0
4,1,1,0,0,511,0
5,1,1,0,0,511,0
6,1,1,0,0,511,0
7,1,1,0,0,511,0
8,1,1,0,0,511,0
9,1,1,0,0,511,0
10,1,1,0,0,512,0
11,1,1,0,0,513,0
12,1,1,0,0,514,0
13,1,1,0,0,515,0
14,1,1,0,0,515,0
15,1,1,0,0,516,0
0,1,1,0,0,516,0
1,1,1,0,0,516,0
2,1,1,0,0,515,0
3,1,1,0,0,515,0
4,1,1,0,0,514,0
5,1,1,0,0,513,0
6,1,1,0,0,512,0
7,1,1,0,0,512,0
8,1,1,0,0,511,0
9,1,1,0,0,511,0
10,1,1,0,0,511,0
11,1,1,0,0,512,0
12,1,1,0,0,512,0
13,1,1,0,0,512,0
14,1,1,0,0,513,0
15,1,1,0,0,514,0
0,1,1,0,0,515,0
1,1,1,0,0,515,0
2,1,1,0,0,516,0
3,1,1,0,0,516,0
4,1,1,0,0,517,0
5,1,1,0,0,518,0
6,1,1,0,0,517,0
7,1,1,0,0,516,0
8,1,1,0,0,515,0
9,1,1,0,0,514,0
10,1,1,0,0,513,0
11,1,1,0,0,512,0
12,1,1,0,0,512,0
13,1,1,0,0,511,0
14,1,1,0,0,511,0
15,1,1,0,0,511,0
0,1,1,0,0,512,0
1,1,1,0,0,513,0
2,1,1,0,0,513,0
3,1,1,0,0,514,0
4,1,1,0,0,515,0
5,1,1,0,0,515,0
6,1,1,0,0,516,0
7,1,1,0,0,516,0
8,1,1,0,0,516,0
9,1,1,0,0,516,0
10,1,1,0,0,515,0
11,1,1,0,0,515,0
12,1,1,0,0,513,0
13,1,1,0,0,512,0
14,1,1,0,0,512,0
15,1,1,0,0,511,0
0,1,1,0,0,511,0
1,1,1,0,0,509,0
2,1,1,0,0,508,0
3,1,1,0,0,507,0
4,1,1,0,0,508,0
5,1,1,0,0,509,0
6,1,1,0,0,510,0
7,1,1,0,0,511,0
8,1,1,0,0,512,0
9,1,1,0,0,512,0
10,1,1,0,0,511,0
11,1,1,0,0,510,0
12,1,1,0,0,507,0
13,1,1,0,0,503,0
14,1,1,0,0,498,0
15,1,1,0,0,492,0
0,1,1,0,0,485,0
1,1,1,0,0,478,0
2,1,1,0,0,471,0
3,1,1,0,0,465,0
4,1,1,0,0,459,0
5,1,1,0,0,455,0
6,1,1,0,0,451,0
7,1,1,0,0,451,0
8,1,1,0,0,451,0
9,1,1,0,0,452,0
10,1,1,0,0,453,0
11,1,1,0,0,453,0
12,1,1,0,0,452,0
13,1,1,0,0,451,0
14,1,1,0,0,451,0
15,1,1,0,0,453,0
0,1,1,0,0,455,0
1,1,1,0,0,458,0
2,1,1,0,0,461,0
3,1,1,0,0,467,0
4,1,1,0,0,476,0
5,1,1,0,0,483,0
6,1,1,0,0,491,0
7,1,1,0,0,499,0
8,1,1,0,0,508,0
9,1,1,0,0,516,0
10,1,1,0,0,525,0
11,1,1,0,0,535,0
12,1,1,0,0,545,0
13,1,1,0,0,559,0
14,1,1,0,0,576,0
15,1,1,0,0,593,0
0,1,1,0,0,612,0
1,1,1,0,0,633,0
2,1,1,0,0,657,0
3,1,1,0,0,679,0
4,1,1,0,0,700,0
5,1,1,0,0,715,0
6,1,1,0,0,723,0
7,1,1,0,0,726,0
8,1,1,0,0,725,0
9,1,1,0,0,723,0
10,1,1,0,0,723,0
11,1,1,0,0,724,0
12,1,1,0,0,723,0
13,1,1,0,0,720,0
14,1,1,0,0,714,0
15,1,1,0,0,704,0
0,1,1,0,0,692,0
1,1,1,0,0,681,0
2,1,1,0,0,670,0
3,1,1,0,0,655,0
4,1,1,0,0,640,0
5,1,1,0,0,625,0
6,1,1,0,0,608,0
7,1,1,0,0,592,0
8,1,1,0,0,575,0
9,1,1,0,0,559,0
10,1,1,0,0,545,0
11,1,1,0,0,533,0
12,1,1,0,0,521,0
13,1,1,0,0,510,0
14,1,1,0,0,500,0
15,1,1,0,0,494,0
0,1,1,0,0,488,0
1,1,1,0,0,483,0
2,1,1,0,0,480,0
3,1,1,0,0,478,0
4,1,1,0,0,476,0
5,1,1,0,0,476,0
6,1,1,0,0,477,0
7,1,1,0,0,479,0
8,1,1,0,0,480,0
9,1,1,0,0,482,0
10,1,1,0,0,482,0
11,1,1,0,0,483,0
12,1,1,0,0,483,0
13,1,1,0,0,484,0
14,1,1,0,0,482,0
15,1,1,0,0,481,0
0,1,1,0,0,480,0
1,1,1,0,0,478,0
2,1,1,0,0,477,0
3,1,1,0,0,476,0
4,1,1,0,0,475,0
5,1,1,0,0,473,0
6,1,1,0,0,472,0
7,1,1,0,0,471,0
8,1,1,0,0,470,0
9,1,1,0,0,470,0
10,1,1,0,0,471,0
11,1,1,0,0,471,0
12,1,1,0,0,472,0
13,1,1,0,0,472,0
14,1,1,0,0,472,0
15,1,1,0,0,472,0
0,1,1,0,0,472,0
1,1,1,0,0,472,0
2,1,1,0,0,472,0
3,1,1,0,0,470,0
4,1,1,0,0,470,0
5,1,1,0,0,468,0
6,1,1,0,0,467,0
7,1,1,0,0,467,0
8,1,1,0,0,467,0
9,1,1,0,0,466,0
10,1,1,0,0,467,0
11,1,1,0,0,467,0
12,1,1,0,0,468,0
13,1,1,0,0,470,0
14,1,1,0,0,472,0
15,1,1,0,0,473,0
0,1,1,0,0,475,0
1,1,1,0,0,475,0
2,1,1,0,0,476,0
3,1,1,0,0,477,0
4,1,1,0,0,478,0
5,1,1,0,0,479,0
6,1,1,0,0,478,0
7,1,1,0,0,477,0
8,1,1,0,0,477,0
9,1,1,0,0,476,0
10,1,1,0,0,475,0
11,1,1,0,0,475,0
12,1,1,0,0,474,0
13,1,1,0,0,474,0
14,1,1,0,0,473,0
15,1,1,0,0,472,0
0,1,1,0,0,472,0
1,1,1,0,0,473,0
2,1,1,0,0,474,0
3,1,1,0,0,474,0
4,1,1,0,0,475,0
5,1,1,0,0,474,0
6,1,1,0,0,474,0
7,1,1,0,0,475,0
8,1,1,0,0,475,0
9,1,1,0,0,475,0
10,1,1,0,0,474,0
11,1,1,0,0,473,0
12,1,1,0,0,472,0
13,1,1,0,0,472,0
14,1,1,0,0,472,0
15,1,1,0,0,472,0
0,1,1,0,0,472,0
1,1,1,0,0,471,0
2,1,1,0,0,471,0
3,1,1,0,0,472,0
4,1,1,0,0,473,0
5,1,1,0,0,475,0
6,1,1,0,0,477,0
7,1,1,0,0,478,0
8,1,1,0,0,480,0
9,1,1,0,0,481,0
10,1,1,0,0,482,0
11,1,1,0,0,483,0
12,1,1,0,0,483,0
13,1,1,0,0,483,0
14,1,1,0,0,483,0
15,1,1,0,0,482,0
0,1,1,0,0,482,0
1,1,1,0,0,482,0
2,1,1,0,0,481,0
3,1,1,0,0,482,0
4,1,1,0,0,482,0
5,1,1,0,0,482,0
6,1,1,0,0,482,0
7,1,1,0,0,483,0
8,1,1,0,0,482,0
9,1,1,0,0,483,0
10,1,1,0,0,484,0
11,1,1,0,0,485,0
12,1,1,0,0,486,0
13,1,1,0,0,486,0
14,1,1,0,0,486,0
15,1,1,0,0,487,0
0,1,1,0,0,487,0
1,1,1,0,0,487,0
2,1,1,0,0,487,0
3,1,1,0,0,486,0
4,1,1,0,0,486,0
5,1,1,0,0,486,0
6,1,1,0,0,485,0
7,1,1,0,0,485,0
8,1,1,0,0,484,0
9,1,1,0,0,484,0
10,1,1,0,0,484,0
11,1,1,0,0,484,0
12,1,1,0,0,485,0
13,1,1,0,0,485,0
14,1,1,0,0,487,0
15,1,1,0,0,488,0
0,1,1,0,0,490,0
1,1,1,0,0,491,0
2,1,1,0,0,492,0
3,1,1,0,0,492,0
4,1,1,0,0,492,0
5,1,1,0,0,492,0
6,1,1,0,0,492,0
7,1,1,0,0,492,0
8,1,1,0,0,492,0
9,1,1,0,0,491,0
10,1,1,0,0,490,0
11,1,1,0,0,489,0
12,1,1,0,0,489,0
13,1,1,0,0,489,0
14,1,1,0,0,489,0
15,1,1,0,0,489,0
0,1,1,0,0,490,0
1,1,1,0,0,491,0
2,1,1,0,0,493,0
3,1,1,0,0,494,0
4,1,1,0,0,496,0
5,1,1,0,0,496,0
6,1,1,0,0,496,0
7,1,1,0,0,496,0
8,1,1,0,0,496,0
9,1,1,0,0,496,0
10,1,1,0,0,496,0
11,1,1,0,0,495,0
12,1,1,0,0,495,0
13,1,1,0,0,493,0
14,1,1,0,0,492,0
15,1,1,0,0,492,0
0,1,1,0,0,491,0
1,1,1,0,0,490,0
2,1,1,0,0,490,0
3,1,1,0,0,490,0
4,1,1,0,0,491,0
5,1,1,0,0,491,0
6,1,1,0,0,492,0
7,1,1,0,0,493,0
8,1,1,0,0,495,0
9,1,1,0,0,495,0
10,1,1,0,0,495,0
11,1,1,0,0,496,0
12,1,1,0,0,495,0
13,1,1,0,0,495,0
14,1,1,0,0,494,0
15,1,1,0,0,493,0
0,1,1,0,0,492,0
1,1,1,0,0,491,0
2,1,1,0,0,490,0
3,1,1,0,0,489,0
4,1,1,0,0,487,0
5,1,1,0,0,487,0
6,1,1,0,0,487,0
7,1,1,0,0,486,0
8,1,1,0,0,487,0
9,1,1,0,0,487,0
10,1,1,0,0,488,0
11,1,1,0,0,489,0
12,1,1,0,0,489,0
13,1,1,0,0,490,0
14,1,1,0,0,490,0
15,1,1,0,0,490,0
0,1,1,0,0,490,0
1,1,1,0,0,490,0
2,1,1,0,0,489,0
3,1,1,0,0,488,0
4,1,1,0,0,487,0
5,1,1,0,0,486,0
6,1,1,0,0,486,0
7,1,1,0,0,485,0
8,1,1,0,0,484,0
9,1,1,0,0,484,0
10,1,1,0,0,484,0
11,1,1,0,0,484,0
12,1,1,0,0,484,0
13,1,1,0,0,485,0
14,1,1,0,0,487,0
15,1,1,0,0,488,0
0,1,1,0,0,489,0
1,1,1,0,0,489,0
2,1,1,0,0,490,0
3,1,1,0,0,490,0
4,1,1,0,0,491,0
5,1,1,0,0,491,0
6,1,1,0,0,491,0
7,1,1,0,0,491,0
8,1,1,0,0,491,0
9,1,1,0,0,489,0
10,1,1,0,0,489,0
11,1,1,0,0,490,0
12,1,1,0,0,491,0
13,1,1,0,0,491,0
14,1,1,0,0,491,0
15,1,1,0,0,493,0
0,1,1,0,0,494,0
1,1,1,0,0,495,0
2,1,1,0,0,497,0
3,1,1,0,0,499,0
4,1,1,0,0,500,0
5,1,1,0,0,502,0
6,1,1,0,0,503,0
7,1,1,0,0,504,0
8,1,1,0,0,505,0
9,1,1,0,0,506,0
10,1,1,0,0,506,0
11,1,1,0,0,507,0
12,1,1,0,0,507,0
13,1,1,0,0,507,0
14,1,1,0,0,506,0
15,1,1,0,0,507,0
0,1,1,0,0,507,0
1,1,1,0,0,509,0
2,1,1,0,0,510,0
3,1,1,0,0,511,0
4,1,1,0,0,512,0
5,1,1,0,0,513,0
6,1,1,0,0,516,0
7,1,1,0,0,517,0
8,1,1,0,0,519,0
9,1,1,0,0,521,0
10,1,1,0,0,522,0
11,1,1,0,0,524,0
12,1,1,0,0,526,0
13,1,1,0,0,526,0
14,1,1,0,0,527,0
15,1,1,0,0,527,0
0,1,1,0,0,527,0
1,1,1,0,0,527,0
2,1,1,0,0,527,0
3,1,1,0,0,527,0
4,1,1,0,0,527,0
5,1,1,0,0,527,0
6,1,1,0,0,528,0
7,1,1,0,0,529,0
8,1,1,0,0,531,0
9,1,1,0,0,532,0
10,1,1,0,0,535,0
11,1,1,0,0,536,0
12,1,1,0,0,537,0
13,1,1,0,0,538,0
14,1,1,0,0,539,0
15,1,1,0,0,540,0
0,1,1,0,0,541,0
1,1,1,0,0,541,0
2,1,1,0,0,541,0
3,1,1,0,0,541,0
4,1,1,0,0,540,0
5,1,1,0,0,540,0
6,1,1,0,0,539,0
7,1,1,0,0,539,0
8,1,1,0,0,539,0
9,1,1,0,0,539,0
10,1,1,0,0,538,0
11,1,1,0,0,539,0
12,1,1,0,0,539,0
13,1,1,0,0,540,0
14,1,1,0,0,542,0
15,1,1,0,0,542,0
0,1,1,0,0,542,0
1,1,1,0,0,543,0
2,1,1,0,0,544,0
3,1,1,0,0,543,0
4,1,1,0,0,543,0
5,1,1,0,0,543,0
6,1,1,0,0,542,0
7,1,1,0,0,541,0
8,1,1,0,0,540,0
9,1,1,0,0,539,0
10,1,1,0,0,537,0
11,1,1,0,0,538,0
12,1,1,0,0,537,0
13,1,1,0,0,536,0
14,1,1,0,0,536,0
15,1,1,0,0,535,0
0,1,1,0,0,536,0
1,1,1,0,0,536,0
2,1,1,0,0,537,0
3,1,1,0,0,538,0
4,1,1,0,0,539,0
5,1,1,0,0,540,0
6,1,1,0,0,540,0
7,1,1,0,0,540,0
8,1,1,0,0,540,0
9,1,1,0,0,540,0
10,1,1,0,0,540,0
11,1,1,0,0,539,0
12,1,1,0,0,538,0
13,1,1,0,0,536,0
14,1,1,0,0,536,0
15,1,1,0,0,535,0
0,1,1,0,0,534,0
1,1,1,0,0,532,0
2,1,1,0,0,532,0
3,1,1,0,0,532,0
4,1,1,0,0,533,0
5,1,1,0,0,534,0
6,1,1,0,0,535,0
7,1,1,0,0,535,0
8,1,1,0,0,536,0
9,1,1,0,0,536,0
10,1,1,0,0,536,0
11,1,1,0,0,536,0
12,1,1,0,0,535,0
13,1,1,0,0,535,0
14,1,1,0,0,533,0
15,1,1,0,0,532,0
0,1,1,0,0,531,0
1,1,1,0,0,529,0
2,1,1,0,0,528,0
3,1,1,0,0,527,0
4,1,1,0,0,526,0
5,1,1,0,0,524,0
6,1,1,0,0,524,0
7,1,1,0,0,524,0
8,1,1,0,0,525,0
9,1,1,0,0,525,0
10,1,1,0,0,526,0
11,1,1,0,0,527,0
12,1,1,0,0,527,0
13,1,1,0,0,527,0
14,1,1,0,0,527,0
15,1,1,0,0,527,0
0,1,1,0,0,528,0
1,1,1,0,0,529,0
2,1,1,0,0,529,0
3,1,1,0,0,528,0
4,1,1,0,0,528,0
5,1,1,0,0,527,0
6,1,1,0,0,527,0
7,1,1,0,0,527,0
8,1,1,0,0,526,0
9,1,1,0,0,526,0
10,1,1,0,0,526,0
11,1,1,0,0,526,0
12,1,1,0,0,527,0
13,1,1,0,0,528,0
14,1,1,0,0,530,0
15,1,1,0,0,531,0
0,1,1,0,0,532,0
1,1,1,0,0,532,0
2,1,1,0,0,532,0
3,1,1,0,0,533,0
4,1,1,0,0,533,0
5,1,1,0,0,533,0
6,1,1,0,0,532,0
7,1,1,0,0,531,0
8,1,1,0,0,530,0
9,1,1,0,0,528,0
10,1,1,0,0,527,0
11,1,1,0,0,526,0
12,1,1,0,0,525,0
13,1,1,0,0,525,0
14,1,1,0,0,523,0
15,1,1,0,0,522,0
0,1,1,0,0,521,0
1,1,1,0,0,521,0
2,1,1,0,0,522,0
3,1,1,0,0,522,0
4,1,1,0,0,522,0
5,1,1,0,0,522,0
6,1,1,0,0,522,0
7,1,1,0,0,521,0
8,1,1,0,0,521,0
9,1,1,0,0,521,0
10,1,1,0,0,519,0
11,1,1,0,0,517,0
12,1,1,0,0,517,0
13,1,1,0,0,515,0
14,1,1,0,0,515,0
15,1,1,0,0,515,0
0,1,1,0,0,514,0
1,1,1,0,0,513,0
2,1,1,0,0,514,0
3,1,1,0,0,514,0
4,1,1,0,0,514,0
5,1,1,0,0,515,0
6,1,1,0,0,516,0
7,1,1,0,0,516,0
8,1,1,0,0,517,0
9,1,1,0,0,517,0
10,1,1,0,0,518,0
11,1,1,0,0,518,0
12,1,1,0,0,518,0
13,1,1,0,0,519,0
14,1,1,0,0,518,0
15,1,1,0,0,517,0
0,1,1,0,0,516,0
1,1,1,0,0,514,0
2,1,1,0,0,513,0
3,1,1,0,0,513,0
4,1,1,0,0,512,0
5,1,1,0,0,512,0
6,1,1,0,0,511,0
7,1,1,0,0,511,0
8,1,1,0,0,511,0
9,1,1,0,0,512,0
10,1,1,0,0,513,0
11,1,1,0,0,514,0
12,1,1,0,0,514,0
13,1,1,0,0,515,0
14,1,1,0,0,515,0
15,1,1,0,0,515,0
0,1,1,0,0,515,0
1,1,1,0,0,515,0
2,1,1,0,0,515,0
3,1,1,0,0,514,0
4,1,1,0,0,513,0
5,1,1,0,0,512,0
6,1,1,0,0,511,0
7,1,1,0,0,511,0
8,1,1,0,0,510,0
9,1,1,0,0,510,0
10,1,1,0,0,509,0
11,1,1,0,0,508,0
12,1,1,0,0,508,0
13,1,1,0,0,510,0
14,1,1,0,0,511,0
15,1,1,0,0,512,0
0,1,1,0,0,512,0
1,1,1,0,0,512,0
2,1,1,0,0,513,0
3,1,1,0,0,513,0
4,1,1,0,0,513,0
5,1,1,0,0,515,0
6,1,1,0,0,513,0
7,1,1,0,0,513,0
8,1,1,0,0,512,0
9,1,1,0,0,510,0
10,1,1,0,0,509,0
11,1,1,0,0,508,0
12,1,1,0,0,508,0
13,1,1,0,0,508,0
14,1,1,0,0,508,0
15,1,1,0,0,508,0
0,1,1,0,0,509,0
1,1,1,0,0,510,0
2,1,1,0,0,511,0
3,1,1,0,0,511,0
4,1,1,0,0,512,0
5,1,1,0,0,513,0
6,1,1,0,0,512,0
7,1,1,0,0,513,0
8,1,1,0,0,513,0
9,1,1,0,0,513,0
10,1,1,0,0,512,0
11,1,1,0,0,512,0
12,1,1,0,0,512,0
13,1,1,0,0,510,0
14,1,1,0,0,509,0
15,1,1,0,0,508,0
0,1,1,0,0,507,0
1,1,1,0,0,506,0
2,1,1,0,0,506,0
3,1,1,0,0,507,0
4,1,1,0,0,507,0
5,1,1,0,0,508,0
6,1,1,0,0,510,0
7,1,1,0,0,511,0
8,1,1,0,0,512,0
9,1,1,0,0,512,0
10,1,1,0,0,512,0
11,1,1,0,0,512,0
12,1,1,0,0,512,0
13,1,1,0,0,512,0
14,1,1,0,0,511,0
15,1,1,0,0,511,0
0,1,1,0,0,510,0
1,1,1,0,0,509,0
2,1,1,0,0,508,0
3,1,1,0,0,508,0
4,1,1,0,0,507,0
5,1,1,0,0,507,0
6,1,1,0,0,506,0
7,1,1,0,0,506,0
8,1,1,0,0,507,0
9,1,1,0,0,508,0
10,1,1,0,0,509,0
11,1,1,0,0,509,0
12,1,1,0,0,510,0
13,1,1,0,0,510,0
14,1,1,0,0,511,0
15,1,1,0,0,511,0
0,1,1,0,0,511,0
1,1,1,0,0,510,0
2,1,1,0,0,509,0
3,1,1,0,0,509,0
4,1,1,0,0,508,0
5,1,1,0,0,507,0
6,1,1,0,0,506,0
7,1,1,0,0,505,0
8,1,1,0,0,504,0
9,1,1,0,0,503,0
10,1,1,0,0,504,0
11,1,1,0,0,504,0
12,1,1,0,0,503,0
13,1,1,0,0,504,0
14,1,1,0,0,505,0
15,1,1,0,0,507,0
0,1,1,0,0,508,0
1,1,1,0,0,508,0
2,1,1,0,0,508,0
3,1,1,0,0,509,0
4,1,1,0,0,509,0
5,1,1,0,0,509,0
6,1,1,0,0,508,0
7,1,1,0,0,508,0
8,1,1,0,0,507,0
9,1,1,0,0,505,0
10,1,1,0,0,504,0
11,1,1,0,0,504,0
12,1,1,0,0,504,0
13,1,1,0,0,504,0
14,1,1,0,0,503,0
15,1,1,0,0,504,0
0,1,1,0,0,504,0
1,1,1,0,0,505,0
2,1,1,0,0,507,0
3,1,1,0,0,508,0
4,1,1,0,0,509,0
5,1,1,0,0,510,0
6,1,1,0,0,510,0
7,1,1,0,0,510,0
8,1,1,0,0,510,0
9,1,1,0,0,510,0
10,1,1,0,0,510,0
11,1,1,0,0,508,0
12,1,1,0,0,509,0
13,1,1,0,0,508,0
14,1,1,0,0,507,0
15,1,1,0,0,507,0
0,1,1,0,0,507,0
1,1,1,0,0,506,0
2,1,1,0,0,505,0
3,1,1,0,0,505,0
4,1,1,0,0,506,0
5,1,1,0,0,507,0
6,1,1,0,0,508,0
7,1,1,0,0,509,0
8,1,1,0,0,511,0
9,1,1,0,0,511,0
10,1,1,0,0,511,0
11,1,1,0,0,512,0
12,1,1,0,0,512,0
13,1,1,0,0,512,0
14,1,1,0,0,512,0
15,1,1,0,0,512,0
0,1,1,0,0,512,0
1,1,1,0,0,510,0
2,1,1,0,0,510,0
3,1,1,0,0,510,0
4,1,1,0,0,509,0
5,1,1,0,0,509,0
6,1,1,0,0,509,0
7,1,1,0,0,509,0
8,1,1,0,0,509,0
9,1,1,0,0,509,0
10,1,1,0,0,511,0
11,1,1,0,0,512,0
12,1,1,0,0,513,0
13,1,1,0,0,513,0
14,1,1,0,0,514,0
15,1,1,0,0,513,0
0,1,1,0,0,514,0
1,1,1,0,0,515,0
2,1,1,0,0,515,0
3,1,1,0,0,514,0
4,1,1,0,0,513,0
5,1,1,0,0,512,0
6,1,1,0,0,511,0
7,1,1,0,0,511,0
8,1,1,0,0,510,0
9,1,1,0,0,509,0
10,1,1,0,0,509,0
11,1,1,0,0,509,0
12,1,1,0,0,510,0
13,1,1,0,0,510,0
14,1,1,0,0,511,0
15,1,1,0,0,512,0
0,1,1,0,0,513,0
1,1,1,0,0,513,0
2,1,1,0,0,513,0
3,1,1,0,0,514,0
4,1,1,0,0,514,0
5,1,1,0,0,514,0
6,1,1,0,0,513,0
7,1,1,0,0,512,0
8,1,1,0,0,512,0
9,1,1,0,0,511,0
10,1,1,0,0,510,0
11,1,1,0,0,509,0
12,1,1,0,0,508,0
13,1,1,0,0,507,0
14,1,1,0,0,508,0
15,1,1,0,0,508,0
0,1,1,0,0,509,0
1,1,1,0,0,509,0
2,1,1,0,0,511,0
3,1,1,0,0,512,0
4,1,1,0,0,512,0
5,1,1,0,0,513,0
6,1,1,0,0,513,0
7,1,1,0,0,513,0
8,1,1,0,0,512,0
9,1,1,0,0,512,0
10,1,1,0,0,511,0
11,1,1,0,0,511,0
12,1,1,0,0,511,0
13,1,1,0,0,510,0
14,1,1,0,0,509,0
15,1,1,0,0,508,0
0,1,1,0,0,508,0
1,1,1,0,0,507,0
2,1,1,0,0,507,0
3,1,1,0,0,508,0
4,1,1,0,0,508,0
5,1,1,0,0,509,0
6,1,1,0,0,510,0
7,1,1,0,0,511,0
8,1,1,0,0,512,0
9,1,1,0,0,513,0
10,1,1,0,0,513,0
11,1,1,0,0,513,0
12,1,1,0,0,513,0
13,1,1,0,0,513,0
14,1,1,0,0,513,0
15,1,1,0,0,512,0
0,1,1,0,0,512,0
1,1,1,0,0,511,0
2,1,1,0,0,511,0
3,1,1,0,0,510,0
4,1,1,0,0,510,0
5,1,1,0,0,509,0
6,1,1,0,0,508,0
7,1,1,0,0,509,0
8,1,1,0,0,509,0
9,1,1,0,0,510,0
10,1,1,0,0,511,0
11,1,1,0,0,512,0
12,1,1,0,0,513,0
13,1,1,0,0,514,0
14,1,1,0,0,514,0
15,1,1,0,0,515,0
0,1,1,0,0,515,0
1,1,1,0,0,515,0
2,1,1,0,0,515,0
3,1,1,0,0,513,0
4,1,1,0,0,513,0
5,1,1,0,0,512,0
6,1,1,0,0,512,0
7,1,1,0,0,512,0
8,1,1,0,0,510,0
9,1,1,0,0,509,0
10,1,1,0,0,508,0
11,1,1,0,0,509,0
12,1,1,0,0,510,0
13,1,1,0,0,510,0
14,1,1,0,0,512,0
15,1,1,0,0,513,0
0,1,1,0,0,514,0
1,1,1,0,0,515,0
2,1,1,0,0,515,0
3,1,1,0,0,515,0
4,1,1,0,0,515,0
5,1,1,0,0,515,0
6,1,1,0,0,514,0
7,1,1,0,0,513,0
8,1,1,0,0,513,0
9,1,1,0,0,512,0
10,1,1,0,0,511,0
11,1,1,0,0,511,0
12,1,1,0,0,510,0
13,1,1,0,0,509,0
14,1,1,0,0,508,0
15,1,1,0,0,508,0
0,1,1,0,0,508,0
1,1,1,0,0,509,0
2,1,1,0,0,510,0
3,1,1,0,0,512,0
4,1,1,0,0,512,0
5,1,1,0,0,513,0
6,1,1,0,0,513,0
7,1,1,0,0,514,0
8,1,1,0,0,514,0
9,1,1,0,0,514,0
10,1,1,0,0,514,0
11,1,1,0,0,513,0
12,1,1,0,0,512,0
13,1,1,0,0,510,0
14,1,1,0,0,509,0
15,1,1,0,0,508,0
0,1,1,0,0,508,0
1,1,1,0,0,508,0
2,1,1,0,0,508,0
3,1,1,0,0,508,0
4,1,1,0,0,508,0
5,1,1,0,0,509,0
6,1,1,0,0,510,0
7,1,1,0,0,511,0
8,1,1,0,0,512,0
9,1,1,0,0,512,0
10,1,1,0,0,513,0
11,1,1,0,0,513,0
12,1,1,0,0,514,0
13,1,1,0,0,513,0
14,1,1,0,0,513,0
15,1,1,0,0,512,0
0,1,1,0,0,511,0
1,1,1,0,0,510,0
2,1,1,0,0,509,0
3,1,1,0,0,509,0
4,1,1,0,0,509,0
5,1,1,0,0,509,0
6,1,1,0,0,509,0
7,1,1,0,0,510,0
8,1,1,0,0,510,0
9,1,1,0,0,511,0
10,1,1,0,0,512,0
11,1,1,0,0,513,0
12,1,1,0,0,514,0
13,1,1,0,0,515,0
14,1,1,0,0,515,0
15,1,1,0,0,515,0
0,1,1,0,0,515,0
1,1,1,0,0,515,0
2,1,1,0,0,514,0
3,1,1,0,0,513,0
4,1,1,0,0,513,0
5,1,1,0,0,512,0
6,1,1,0,0,511,0
7,1,1,0,0,511,0
8,1,1,0,0,509,0
9,1,1,0,0,509,0
10,1,1,0,0,508,0
11,1,1,0,0,509,0
12,1,1,0,0,509,0
13,1,1,0,0,510,0
14,1,1,0,0,511,0
15,1,1,0,0,512,0
0,1,1,0,0,513,0
1,1,1,0,0,514,0
2,1,1,0,0,514,0
3,1,1,0,0,515,0
4,1,1,0,0,515,0
5,1,1,0,0,515,0
6,1,1,0,0,515,0
7,1,1,0,0,514,0
8,1,1,0,0,513,0
9,1,1,0,0,512,0
10,1,1,0,0,512,0
11,1,1,0,0,511,0
12,1,1,0,0,511,0
13,1,1,0,0,510,0
14,1,1,0,0,509,0
15,1,1,0,0,510,0
0,1,1,0,0,510,0
1,1,1,0,0,512,0
2,1,1,0,0,513,0
3,1,1,0,0,514,0
4,1,1,0,0,514,0
5,1,1,0,0,515,0
6,1,1,0,0,515,0
7,1,1,0,0,515,0
8,1,1,0,0,515,0
9,1,1,0,0,515,0
10,1,1,0,0,515,0
11,1,1,0,0,513,0
12,1,1,0,0,512,0
13,1,1,0,0,511,0
14,1,1,0,0,511,0
15,1,1,0,0,511,0
0,1,1,0,0,510,0
1,1,1,0,0,510,0
2,1,1,0,0,509,0
3,1,1,0,0,510,0
4,1,1,0,0,510,0
5,1,1,0,0,510,0
6,1,1,0,0,511,0
7,1,1,0,0,512,0
8,1,1,0,0,513,0
9,1,1,0,0,514,0
10,1,1,0,0,515,0
11,1,1,0,0,515,0
12,1,1,0,0,515,0
13,1,1,0,0,515,0
14,1,1,0,0,514,0
15,1,1,0,0,513,0
0,1,1,0,0,513,0
1,1,1,0,0,512,0
2,1,1,0,0,511,0
3,1,1,0,0,511,0
4,1,1,0,0,510,0
5,1,1,0,0,510,0
6,1,1,0,0,510,0
7,1,1,0,0,510,0
8,1,1,0,0,510,0
9,1,1,0,0,511,0
10,1,1,0,0,512,0
11,1,1,0,0,512,0
12,1,1,0,0,513,0
13,1,1,0,0,514,0
14,1,1,0,0,514,0
15,1,1,0,0,514,0
0,1,1,0,0,514,0
1,1,1,0,0,515,0
2,1,1,0,0,515,0
3,1,1,0,0,513,0
4,1,1,0,0,513,0
5,1,1,0,0,512,0
6,1,1,0,0,511,0
7,1,1,0,0,512,0
8,1,1,0,0,512,0
9,1,1,0,0,511,0
10,1,1,0,0,511,0
11,1,1,0,0,511,0
12,1,1,0,0,511,0
13,1,1,0,0,512,0
14,1,1,0,0,513,0
15,1,1,0,0,514,0
0,1,1,0,0,515,0
1,1,1,0,0,516,0
2,1,1,0,0,516,0
3,1,1,0,0,516,0
4,1,1,0,0,515,0
5,1,1,0,0,515,0
6,1,1,0,0,515,0
7,1,1,0,0,514,0
8,1,1,0,0,514,0
9,1,1,0,0,513,0
10,1,1,0,0,512,0
11,1,1,0,0,512,0
12,1,1,0,0,511,0
13,1,1,0,0,511,0
14,1,1,0,0,511,0
15,1,1,0,0,511,0
0,1,1,0,0,511,0
1,1,1,0,0,512,0
2,1,1,0,0,513,0
3,1,1,0,0,514,0
4,1,1,0,0,515,0
5,1,1,0,0,515,0
6,1,1,0,0,516,0
7,1,1,0,0,516,0
8,1,1,0,0,516,0
9,1,1,0,0,516,0
10,1,1,0,0,515,0
11,1,1,0,0,514,0
12,1,1,0,0,514,0
13,1,1,0,0,512,0
14,1,1,0,0,511,0
15,1,1,0,0,511,0
0,1,1,0,0,510,0
1,1,1,0,0,509,0
2,1,1,0,0,510,0
3,1,1,0,0,510,0
4,1,1,0,0,511,0
5,1,1,0,0,512,0
6,1,1,0,0,513,0
7,1,1,0,0,514,0
8,1,1,0,0,514,0
9,1,1,0,0,515,0
10,1,1,0,0,515,0
11,1,1,0,0,515,0
12,1,1,0,0,515,0
13,1,1,0,0,515,0
14,1,1,0,0,514,0
15,1,1,0,0,512,0
0,1,1,0,0,511,0
1,1,1,0,0,510,0
2,1,1,0,0,509,0
3,1,1,0,0,509,0
4,1,1,0,0,509,0
5,1,1,0,0,508,0
6,1,1,0,0,508,0
7,1,1,0,0,508,0
8,1,1,0,0,509,0
9,1,1,0,0,511,0
10,1,1,0,0,512,0
11,1,1,0,0,515,0
12,1,1,0,0,516,0
13,1,1,0,0,517,0
14,1,1,0,0,517,0
15,1,1,0,0,518,0
0,1,1,0,0,518,0
1,1,1,0,0,518,0
2,1,1,0,0,517,0
3,1,1,0,0,516,0
4,1,1,0,0,516,0
5,1,1,0,0,515,0
6,1,1,0,0,513,0
7,1,1,0,0,512,0
8,1,1,0,0,511,0
9,1,1,0,0,510,0
10,1,1,0,0,509,0
11,1,1,0,0,508,0
12,1,1,0,0,508,0
13,1,1,0,0,508,0
14,1,1,0,0,508,0
15,1,1,0,0,507,0
0,1,1,0,0,507,0
1,1,1,0,0,506,0
2,1,1,0,0,505,0
3,1,1,0,0,505,0
4,1,1,0,0,505,0
5,1,1,0,0,506,0
6,1,1,0,0,505,0
7,1,1,0,0,505,0
8,1,1,0,0,505,0
9,1,1,0,0,504,0
10,1,1,0,0,503,0
11,1,1,0,0,503,0
12,1,1,0,0,503,0
13,1,1,0,0,502,0
14,1,1,0,0,502,0
15,1,1,0,0,502,0
0,1,1,0,0,503,0
1,1,1,0,0,504,0
2,1,1,0,0,505,0
3,1,1,0,0,507,0
4,1,1,0,0,508,0
5,1,1,0,0,508,0
6,1,1,0,0,509,0
7,1,1,0,0,510,0
8,1,1,0,0,510,0
9,1,1,0,0,510,0
10,1,1,0,0,510,0
11,1,1,0,0,510,0
12,1,1,0,0,509,0
13,1,1,0,0,508,0
14,1,1,0,0,507,0
