0,1,2,3,4,5,6
0,1,1,0,0,474,523
1,1,1,0,0,474,522
2,1,1,0,0,474,521
3,1,1,0,0,476,523
4,1,1,0,0,478,521
5,1,1,0,0,479,523
6,1,1,0,0,481,524
7,1,1,0,0,484,522
8,1,1,0,0,486,522
9,1,1,0,0,488,523
10,1,1,0,0,491,526
11,1,1,0,0,492,524
12,1,1,0,0,493,523
13,1,1,0,0,494,521
14,1,1,0,0,495,524
15,1,1,0,0,496,525
0,1,1,0,0,495,526
1,1,1,0,0,493,525
2,1,1,0,0,490,526
3,1,1,0,0,488,524
4,1,1,0,0,486,526
5,1,1,0,0,483,525
6,1,1,0,0,481,529
7,1,1,0,0,480,523
8,1,1,0,0,481,527
9,1,1,0,0,483,529
10,1,1,0,0,484,526
11,1,1,0,0,485,525
12,1,1,0,0,487,523
13,1,1,0,0,489,525
14,1,1,0,0,490,527
15,1,1,0,0,492,527
0,1,1,0,0,492,526
1,1,1,0,0,494,524
2,1,1,0,0,496,526
3,1,1,0,0,497,528
4,1,1,0,0,499,527
5,1,1,0,0,500,526
6,1,1,0,0,501,529
7,1,1,0,0,502,527
8,1,1,0,0,502,528
9,1,1,0,0,502,527
10,1,1,0,0,502,525
11,1,1,0,0,502,523
12,1,1,0,0,502,525
13,1,1,0,0,503,526
14,1,1,0,0,502,526
15,1,1,0,0,502,525
0,1,1,0,0,502,526
1,1,1,0,0,504,524
2,1,1,0,0,505,526
3,1,1,0,0,505,526
4,1,1,0,0,507,526
5,1,1,0,0,509,526
6,1,1,0,0,512,524
7,1,1,0,0,514,526
8,1,1,0,0,515,524
9,1,1,0,0,513,523
10,1,1,0,0,509,523
11,1,1,0,0,507,521
12,1,1,0,0,505,521
13,1,1,0,0,502,521
14,1,1,0,0,499,521
15,1,1,0,0,497,522
0,1,1,0,0,496,520
1,1,1,0,0,497,521
2,1,1,0,0,497,521
3,1,1,0,0,497,520
4,1,1,0,0,497,521
5,1,1,0,0,497,519
6,1,1,0,0,497,522
7,1,1,0,0,497,520
8,1,1,0,0,498,518
9,1,1,0,0,499,519
10,1,1,0,0,500,517
11,1,1,0,0,500,519
12,1,1,0,0,501,515
13,1,1,0,0,500,519
14,1,1,0,0,500,513
15,1,1,0,0,502,519
0,1,1,0,0,502,517
1,1,1,0,0,503,515
2,1,1,0,0,503,519
3,1,1,0,0,504,513
4,1,1,0,0,504,519
5,1,1,0,0,507,517
6,1,1,0,0,509,515
7,1,1,0,0,511,519
8,1,1,0,0,512,513
9,1,1,0,0,512,514
10,1,1,0,0,512,518
11,1,1,0,0,512,515
12,1,1,0,0,512,514
13,1,1,0,0,512,512
14,1,1,0,0,512,514
15,1,1,0,0,511,515
0,1,1,0,0,512,515
1,1,1,0,0,512,514
2,1,1,0,0,513,511
3,1,1,0,0,512,513
4,1,1,0,0,512,515
5,1,1,0,0,511,515
6,1,1,0,0,510,514
7,1,1,0,0,510,511
8,1,1,0,0,512,514
9,1,1,0,0,515,513
10,1,1,0,0,518,512
11,1,1,0,0,520,511
12,1,1,0,0,521,509
13,1,1,0,0,520,511
14,1,1,0,0,518,512
15,1,1,0,0,515,513
0,1,1,0,0,512,511
1,1,1,0,0,509,509
2,1,1,0,0,508,511
3,1,1,0,0,507,512
4,1,1,0,0,505,511
5,1,1,0,0,504,511
6,1,1,0,0,503,513
7,1,1,0,0,503,510
8,1,1,0,0,504,511
9,1,1,0,0,505,511
10,1,1,0,0,505,508
11,1,1,0,0,506,505
12,1,1,0,0,507,508
13,1,1,0,0,508,508
14,1,1,0,0,509,509
15,1,1,0,0,511,507
0,1,1,0,0,512,509
1,1,1,0,0,511,508
2,1,1,0,0,511,508
3,1,1,0,0,511,509
4,1,1,0,0,512,507
5,1,1,0,0,511,508
6,1,1,0,0,509,507
7,1,1,0,0,507,507
8,1,1,0,0,505,510
9,1,1,0,0,504,506
10,1,1,0,0,504,504
11,1,1,0,0,504,505
12,1,1,0,0,503,506
13,1,1,0,0,504,507
14,1,1,0,0,504,504
15,1,1,0,0,505,503
0,1,1,0,0,506,504
1,1,1,0,0,507,506
2,1,1,0,0,508,507
3,1,1,0,0,511,506
4,1,1,0,0,512,506
5,1,1,0,0,514,505
6,1,1,0,0,516,507
7,1,1,0,0,518,504
8,1,1,0,0,517,508
9,1,1,0,0,516,503
10,1,1,0,0,514,509
11,1,1,0,0,513,508
12,1,1,0,0,511,504
13,1,1,0,0,509,504
14,1,1,0,0,507,502
15,1,1,0,0,506,504
0,1,1,0,0,506,506
1,1,1,0,0,507,506
2,1,1,0,0,508,505
3,1,1,0,0,510,502
4,1,1,0,0,512,504
5,1,1,0,0,512,507
6,1,1,0,0,513,504
7,1,1,0,0,513,507
8,1,1,0,0,514,503
9,1,1,0,0,515,505
10,1,1,0,0,517,506
11,1,1,0,0,518,505
12,1,1,0,0,518,503
13,1,1,0,0,518,502
14,1,1,0,0,519,504
15,1,1,0,0,519,505
0,1,1,0,0,518,505
1,1,1,0,0,517,503
2,1,1,0,0,515,505
3,1,1,0,0,515,504
4,1,1,0,0,515,505
5,1,1,0,0,514,505
6,1,1,0,0,512,504
7,1,1,0,0,512,504
8,1,1,0,0,514,504
9,1,1,0,0,516,504
10,1,1,0,0,516,508
11,1,1,0,0,515,505
12,1,1,0,0,514,502
13,1,1,0,0,513,504
14,1,1,0,0,512,505
15,1,1,0,0,510,506
0,1,1,0,0,509,504
1,1,1,0,0,508,506
2,1,1,0,0,508,505
3,1,1,0,0,507,504
4,1,1,0,0,506,508
5,1,1,0,0,505,506
6,1,1,0,0,504,508
7,1,1,0,0,504,505
8,1,1,0,0,501,507
9,1,1,0,0,499,506
10,1,1,0,0,497,504
11,1,1,0,0,496,503
12,1,1,0,0,495,505
13,1,1,0,0,494,507
14,1,1,0,0,493,507
15,1,1,0,0,494,506
0,1,1,0,0,495,507
1,1,1,0,0,496,505
2,1,1,0,0,497,507
3,1,1,0,0,499,505
4,1,1,0,0,499,510
5,1,1,0,0,500,504
6,1,1,0,0,502,511
7,1,1,0,0,503,509
8,1,1,0,0,503,507
9,1,1,0,0,503,506
10,1,1,0,0,504,504
11,1,1,0,0,505,507
12,1,1,0,0,507,507
13,1,1,0,0,509,507
14,1,1,0,0,511,507
15,1,1,0,0,513,504
0,1,1,0,0,516,506
1,1,1,0,0,521,508
2,1,1,0,0,525,508
3,1,1,0,0,529,508
4,1,1,0,0,531,505
5,1,1,0,0,533,507
6,1,1,0,0,533,510
7,1,1,0,0,533,506
8,1,1,0,0,532,510
9,1,1,0,0,530,506
10,1,1,0,0,528,508
11,1,1,0,0,527,508
12,1,1,0,0,526,509
13,1,1,0,0,525,506
14,1,1,0,0,526,505
15,1,1,0,0,527,507
0,1,1,0,0,529,509
1,1,1,0,0,529,509
2,1,1,0,0,530,507
3,1,1,0,0,530,509
4,1,1,0,0,529,508
5,1,1,0,0,528,509
6,1,1,0,0,529,510
7,1,1,0,0,529,508
8,1,1,0,0,529,508
9,1,1,0,0,529,510
10,1,1,0,0,530,508
11,1,1,0,0,531,512
12,1,1,0,0,531,510
13,1,1,0,0,531,506
14,1,1,0,0,531,508
15,1,1,0,0,531,511
0,1,1,0,0,530,511
1,1,1,0,0,529,509
2,1,1,0,0,527,512
3,1,1,0,0,525,510
4,1,1,0,0,521,509
5,1,1,0,0,518,513
6,1,1,0,0,515,511
7,1,1,0,0,513,512
8,1,1,0,0,512,512
9,1,1,0,0,510,512
10,1,1,0,0,508,512
11,1,1,0,0,506,509
12,1,1,0,0,505,508
13,1,1,0,0,504,510
14,1,1,0,0,504,511
15,1,1,0,0,505,512
0,1,1,0,0,506,510
1,1,1,0,0,507,512
2,1,1,0,0,508,511
3,1,1,0,0,509,512
4,1,1,0,0,510,512
5,1,1,0,0,510,511
6,1,1,0,0,511,512
7,1,1,0,0,511,512
8,1,1,0,0,512,511
9,1,1,0,0,512,515
10,1,1,0,0,512,512
11,1,1,0,0,511,509
12,1,1,0,0,510,511
13,1,1,0,0,508,512
14,1,1,0,0,505,513
15,1,1,0,0,503,511
0,1,1,0,0,501,512
1,1,1,0,0,499,511
2,1,1,0,0,499,511
3,1,1,0,0,500,515
4,1,1,0,0,500,514
5,1,1,0,0,500,512
6,1,1,0,0,500,516
7,1,1,0,0,501,514
8,1,1,0,0,501,513
9,1,1,0,0,502,512
10,1,1,0,0,503,510
11,1,1,0,0,504,512
12,1,1,0,0,504,513
13,1,1,0,0,505,513
14,1,1,0,0,506,512
15,1,1,0,0,507,509
0,1,1,0,0,508,511
1,1,1,0,0,509,513
2,1,1,0,0,511,513
3,1,1,0,0,512,512
4,1,1,0,0,513,509
5,1,1,0,0,513,511
6,1,1,0,0,514,515
7,1,1,0,0,514,511
8,1,1,0,0,513,514
9,1,1,0,0,512,512
10,1,1,0,0,512,511
11,1,1,0,0,512,513
12,1,1,0,0,513,510
13,1,1,0,0,513,510
14,1,1,0,0,513,511
15,1,1,0,0,513,510
0,1,1,0,0,513,511
1,1,1,0,0,513,511
2,1,1,0,0,512,511
3,1,1,0,0,512,512
4,1,1,0,0,512,511
5,1,1,0,0,513,511
6,1,1,0,0,513,512
7,1,1,0,0,514,510
8,1,1,0,0,514,511
9,1,1,0,0,515,510
10,1,1,0,0,515,511
11,1,1,0,0,516,509
12,1,1,0,0,516,509
13,1,1,0,0,516,510
14,1,1,0,0,516,508
15,1,1,0,0,515,510
0,1,1,0,0,515,508
1,1,1,0,0,515,513
2,1,1,0,0,515,511
3,1,1,0,0,518,510
4,1,1,0,0,521,511
5,1,1,0,0,524,511
6,1,1,0,0,526,510
7,1,1,0,0,526,510
8,1,1,0,0,525,508
9,1,1,0,0,524,511
10,1,1,0,0,523,508
11,1,1,0,0,521,507
12,1,1,0,0,519,508
13,1,1,0,0,519,507
14,1,1,0,0,519,509
15,1,1,0,0,521,509
0,1,1,0,0,525,508
1,1,1,0,0,531,509
2,1,1,0,0,538,508
3,1,1,0,0,545,509
4,1,1,0,0,552,510
5,1,1,0,0,558,509
6,1,1,0,0,564,509
7,1,1,0,0,570,507
8,1,1,0,0,574,510
9,1,1,0,0,575,506
10,1,1,0,0,576,509
11,1,1,0,0,577,508
12,1,1,0,0,579,507
13,1,1,0,0,580,509
14,1,1,0,0,582,508
15,1,1,0,0,585,508
0,1,1,0,0,587,509
1,1,1,0,0,590,508
2,1,1,0,0,591,509
3,1,1,0,0,590,510
4,1,1,0,0,588,509
5,1,1,0,0,584,509
6,1,1,0,0,577,508
7,1,1,0,0,566,510
8,1,1,0,0,557,507
9,1,1,0,0,548,511
10,1,1,0,0,539,504
11,1,1,0,0,530,510
12,1,1,0,0,521,508
13,1,1,0,0,513,507
14,1,1,0,0,508,511
15,1,1,0,0,497,506
0,1,1,0,0,480,510
1,1,1,0,0,458,510
2,1,1,0,0,429,508
3,1,1,0,0,395,512
4,1,1,0,0,359,507
5,1,1,0,0,326,513
6,1,1,0,0,299,510
7,1,1,0,0,281,509
8,1,1,0,0,271,513
9,1,1,0,0,266,507
10,1,1,0,0,263,513
11,1,1,0,0,258,512
12,1,1,0,0,249,508
13,1,1,0,0,240,509
14,1,1,0,0,239,506
15,1,1,0,0,244,508
0,1,1,0,0,254,510
1,1,1,0,0,264,510
2,1,1,0,0,275,508
3,1,1,0,0,286,509
4,1,1,0,0,302,508
5,1,1,0,0,320,508
6,1,1,0,0,339,511
7,1,1,0,0,362,510
8,1,1,0,0,384,506
9,1,1,0,0,407,508
10,1,1,0,0,428,510
11,1,1,0,0,449,508
12,1,1,0,0,469,511
13,1,1,0,0,486,507
14,1,1,0,0,500,509
15,1,1,0,0,510,510
0,1,1,0,0,519,510
1,1,1,0,0,526,510
2,1,1,0,0,533,507
3,1,1,0,0,538,508
4,1,1,0,0,540,511
5,1,1,0,0,542,509
6,1,1,0,0,544,512
7,1,1,0,0,547,508
8,1,1,0,0,550,510
9,1,1,0,0,552,510
10,1,1,0,0,556,509
11,1,1,0,0,558,508
12,1,1,0,0,559,506
13,1,1,0,0,561,508
14,1,1,0,0,563,510
15,1,1,0,0,564,509
0,1,1,0,0,564,508
1,1,1,0,0,565,509
2,1,1,0,0,566,507
3,1,1,0,0,567,509
4,1,1,0,0,567,510
5,1,1,0,0,567,508
6,1,1,0,0,567,510
7,1,1,0,0,567,509
8,1,1,0,0,566,507
9,1,1,0,0,565,512
10,1,1,0,0,564,508
11,1,1,0,0,563,505
12,1,1,0,0,561,507
13,1,1,0,0,560,509
14,1,1,0,0,561,508
15,1,1,0,0,562,507
0,1,1,0,0,563,509
1,1,1,0,0,564,507
2,1,1,0,0,566,507
3,1,1,0,0,568,510
4,1,1,0,0,568,509
5,1,1,0,0,567,508
6,1,1,0,0,566,512
7,1,1,0,0,565,509
8,1,1,0,0,564,508
9,1,1,0,0,561,508
10,1,1,0,0,559,505
11,1,1,0,0,558,508
12,1,1,0,0,556,508
13,1,1,0,0,554,508
14,1,1,0,0,553,508
15,1,1,0,0,553,504
0,1,1,0,0,554,507
1,1,1,0,0,555,508
2,1,1,0,0,556,508
3,1,1,0,0,558,508
4,1,1,0,0,558,504
5,1,1,0,0,558,507
6,1,1,0,0,558,510
7,1,1,0,0,559,506
8,1,1,0,0,560,509
9,1,1,0,0,562,503
10,1,1,0,0,563,505
11,1,1,0,0,564,508
12,1,1,0,0,566,506
13,1,1,0,0,566,505
14,1,1,0,0,565,503
15,1,1,0,0,564,505
0,1,1,0,0,562,507
1,1,1,0,0,561,507
2,1,1,0,0,560,506
3,1,1,0,0,559,507
4,1,1,0,0,558,505
5,1,1,0,0,557,508
6,1,1,0,0,558,505
7,1,1,0,0,557,510
8,1,1,0,0,557,504
9,1,1,0,0,558,506
10,1,1,0,0,557,509
11,1,1,0,0,558,505
12,1,1,0,0,558,505
13,1,1,0,0,558,504
14,1,1,0,0,557,505
15,1,1,0,0,556,507
0,1,1,0,0,556,508
1,1,1,0,0,555,505
2,1,1,0,0,553,507
3,1,1,0,0,554,505
4,1,1,0,0,553,505
5,1,1,0,0,553,508
6,1,1,0,0,553,508
7,1,1,0,0,553,504
8,1,1,0,0,554,507
9,1,1,0,0,555,507
10,1,1,0,0,555,505
11,1,1,0,0,556,509
12,1,1,0,0,556,504
13,1,1,0,0,556,507
14,1,1,0,0,556,508
15,1,1,0,0,555,508
0,1,1,0,0,554,506
1,1,1,0,0,554,504
2,1,1,0,0,554,507
3,1,1,0,0,555,509
4,1,1,0,0,556,508
5,1,1,0,0,556,508
6,1,1,0,0,556,510
7,1,1,0,0,554,507
8,1,1,0,0,553,509
9,1,1,0,0,552,509
10,1,1,0,0,553,507
11,1,1,0,0,551,503
12,1,1,0,0,550,507
13,1,1,0,0,549,508
14,1,1,0,0,547,508
15,1,1,0,0,546,506
0,1,1,0,0,544,508
1,1,1,0,0,544,506
2,1,1,0,0,545,506
3,1,1,0,0,546,509
4,1,1,0,0,546,509
5,1,1,0,0,547,504
6,1,1,0,0,547,511
7,1,1,0,0,547,510
8,1,1,0,0,547,507
9,1,1,0,0,548,506
10,1,1,0,0,548,504
11,1,1,0,0,548,507
12,1,1,0,0,549,507
13,1,1,0,0,551,507
14,1,1,0,0,554,507
15,1,1,0,0,557,504
0,1,1,0,0,561,506
1,1,1,0,0,563,508
2,1,1,0,0,566,508
3,1,1,0,0,568,507
4,1,1,0,0,569,504
5,1,1,0,0,570,507
6,1,1,0,0,570,511
7,1,1,0,0,569,506
8,1,1,0,0,568,509
9,1,1,0,0,566,505
10,1,1,0,0,564,508
11,1,1,0,0,563,508
12,1,1,0,0,561,507
13,1,1,0,0,560,505
14,1,1,0,0,559,504
15,1,1,0,0,558,506
0,1,1,0,0,558,508
1,1,1,0,0,559,508
2,1,1,0,0,561,506
3,1,1,0,0,563,508
4,1,1,0,0,565,506
5,1,1,0,0,568,508
6,1,1,0,0,570,508
7,1,1,0,0,572,507
8,1,1,0,0,575,507
9,1,1,0,0,578,508
10,1,1,0,0,581,506
11,1,1,0,0,583,510
12,1,1,0,0,586,507
13,1,1,0,0,586,504
14,1,1,0,0,588,507
15,1,1,0,0,587,508
0,1,1,0,0,586,508
1,1,1,0,0,584,506
2,1,1,0,0,582,508
3,1,1,0,0,580,507
4,1,1,0,0,578,506
5,1,1,0,0,574,510
6,1,1,0,0,570,508
7,1,1,0,0,567,509
8,1,1,0,0,564,509
9,1,1,0,0,564,509
10,1,1,0,0,563,508
11,1,1,0,0,563,507
12,1,1,0,0,563,504
13,1,1,0,0,563,507
14,1,1,0,0,564,508
15,1,1,0,0,565,508
0,1,1,0,0,567,507
1,1,1,0,0,569,508
2,1,1,0,0,571,507
3,1,1,0,0,572,508
4,1,1,0,0,572,509
5,1,1,0,0,571,508
6,1,1,0,0,569,509
7,1,1,0,0,567,508
8,1,1,0,0,564,507
9,1,1,0,0,562,511
10,1,1,0,0,561,508
11,1,1,0,0,558,505
12,1,1,0,0,556,507
13,1,1,0,0,554,508
14,1,1,0,0,553,509
15,1,1,0,0,552,507
0,1,1,0,0,551,509
1,1,1,0,0,550,508
2,1,1,0,0,548,507
3,1,1,0,0,545,511
4,1,1,0,0,542,510
5,1,1,0,0,540,508
6,1,1,0,0,537,513
7,1,1,0,0,535,510
8,1,1,0,0,532,509
9,1,1,0,0,529,509
10,1,1,0,0,527,506
11,1,1,0,0,525,508
12,1,1,0,0,522,508
13,1,1,0,0,520,508
14,1,1,0,0,517,508
15,1,1,0,0,514,506
0,1,1,0,0,512,508
1,1,1,0,0,509,510
2,1,1,0,0,505,510
3,1,1,0,0,504,509
4,1,1,0,0,502,506
5,1,1,0,0,500,508
6,1,1,0,0,498,512
7,1,1,0,0,496,510
8,1,1,0,0,495,508
9,1,1,0,0,492,505
10,1,1,0,0,490,511
11,1,1,0,0,488,511
12,1,1,0,0,487,508
13,1,1,0,0,484,507
14,1,1,0,0,483,505
15,1,1,0,0,481,508
0,1,1,0,0,478,509
1,1,1,0,0,476,510
2,1,1,0,0,474,509
3,1,1,0,0,473,506
4,1,1,0,0,472,508
5,1,1,0,0,471,511
6,1,1,0,0,470,510
7,1,1,0,0,469,510
8,1,1,0,0,468,512
9,1,1,0,0,467,510
10,1,1,0,0,466,511
11,1,1,0,0,464,512
12,1,1,0,0,463,510
13,1,1,0,0,462,508
14,1,1,0,0,461,510
15,1,1,0,0,459,512
0,1,1,0,0,457,512
1,1,1,0,0,456,511
2,1,1,0,0,456,512
3,1,1,0,0,456,511
4,1,1,0,0,457,513
5,1,1,0,0,459,513
6,1,1,0,0,459,512
7,1,1,0,0,460,512
8,1,1,0,0,460,513
9,1,1,0,0,458,512
10,1,1,0,0,456,516
11,1,1,0,0,455,514
12,1,1,0,0,454,510
13,1,1,0,0,454,513
14,1,1,0,0,454,514
15,1,1,0,0,454,515
0,1,1,0,0,455,514
1,1,1,0,0,455,515
2,1,1,0,0,456,513
3,1,1,0,0,457,514
4,1,1,0,0,457,517
5,1,1,0,0,459,515
6,1,1,0,0,460,517
7,1,1,0,0,461,514
8,1,1,0,0,462,516
9,1,1,0,0,462,516
10,1,1,0,0,464,515
11,1,1,0,0,465,516
12,1,1,0,0,467,515
13,1,1,0,0,468,516
14,1,1,0,0,469,516
15,1,1,0,0,471,516
0,1,1,0,0,471,517
1,1,1,0,0,471,515
2,1,1,0,0,471,517
3,1,1,0,0,471,517
4,1,1,0,0,473,517
5,1,1,0,0,474,517
6,1,1,0,0,475,517
7,1,1,0,0,476,518
8,1,1,0,0,478,517
9,1,1,0,0,478,515
10,1,1,0,0,479,515
11,1,1,0,0,480,514
12,1,1,0,0,479,516
13,1,1,0,0,478,515
14,1,1,0,0,477,515
15,1,1,0,0,476,516
0,1,1,0,0,474,515
1,1,1,0,0,472,514
2,1,1,0,0,472,518
3,1,1,0,0,473,516
4,1,1,0,0,473,517
5,1,1,0,0,476,515
6,1,1,0,0,479,519
7,1,1,0,0,482,516
8,1,1,0,0,485,515
9,1,1,0,0,487,515
10,1,1,0,0,489,514
11,1,1,0,0,489,517
12,1,1,0,0,488,515
13,1,1,0,0,486,515
14,1,1,0,0,482,515
15,1,1,0,0,479,514
0,1,1,0,0,476,515
1,1,1,0,0,473,516
2,1,1,0,0,472,515
3,1,1,0,0,472,516
4,1,1,0,0,472,515
5,1,1,0,0,473,516
6,1,1,0,0,476,516
7,1,1,0,0,477,515
8,1,1,0,0,478,515
9,1,1,0,0,478,514
10,1,1,0,0,479,513
11,1,1,0,0,480,517
12,1,1,0,0,481,513
13,1,1,0,0,482,515
14,1,1,0,0,483,514
15,1,1,0,0,485,515
0,1,1,0,0,486,515
1,1,1,0,0,486,515
2,1,1,0,0,487,515
3,1,1,0,0,488,514
4,1,1,0,0,488,515
5,1,1,0,0,490,516
6,1,1,0,0,492,515
7,1,1,0,0,493,515
8,1,1,0,0,494,513
9,1,1,0,0,493,516
10,1,1,0,0,493,514
11,1,1,0,0,493,513
12,1,1,0,0,493,513
13,1,1,0,0,495,512
14,1,1,0,0,496,514
15,1,1,0,0,496,514
0,1,1,0,0,496,513
1,1,1,0,0,497,515
2,1,1,0,0,498,513
3,1,1,0,0,498,514
4,1,1,0,0,498,515
5,1,1,0,0,498,514
6,1,1,0,0,497,510
7,1,1,0,0,496,513
8,1,1,0,0,495,517
9,1,1,0,0,495,514
10,1,1,0,0,496,512
11,1,1,0,0,498,515
12,1,1,0,0,500,513
13,1,1,0,0,502,512
14,1,1,0,0,503,515
15,1,1,0,0,503,514
0,1,1,0,0,502,516
1,1,1,0,0,502,513
2,1,1,0,0,503,513
3,1,1,0,0,504,516
4,1,1,0,0,505,514
5,1,1,0,0,505,515
6,1,1,0,0,505,514
7,1,1,0,0,504,515
8,1,1,0,0,504,513
9,1,1,0,0,503,516
10,1,1,0,0,502,511
11,1,1,0,0,501,514
12,1,1,0,0,501,515
13,1,1,0,0,501,513
14,1,1,0,0,502,516
15,1,1,0,0,504,513
0,1,1,0,0,506,515
1,1,1,0,0,507,513
2,1,1,0,0,508,516
3,1,1,0,0,510,515
4,1,1,0,0,511,511
5,1,1,0,0,511,513
6,1,1,0,0,511,514
7,1,1,0,0,511,514
8,1,1,0,0,511,512
9,1,1,0,0,510,514
10,1,1,0,0,509,513
11,1,1,0,0,508,512
12,1,1,0,0,506,514
13,1,1,0,0,505,514
14,1,1,0,0,503,511
15,1,1,0,0,502,512
0,1,1,0,0,501,514
1,1,1,0,0,500,512
2,1,1,0,0,500,515
3,1,1,0,0,500,510
4,1,1,0,0,501,512
5,1,1,0,0,501,513
6,1,1,0,0,502,513
7,1,1,0,0,504,511
8,1,1,0,0,505,514
9,1,1,0,0,507,511
10,1,1,0,0,508,512
11,1,1,0,0,508,512
12,1,1,0,0,508,510
13,1,1,0,0,508,508
14,1,1,0,0,508,510
15,1,1,0,0,508,511
0,1,1,0,0,508,511
1,1,1,0,0,508,510
2,1,1,0,0,508,511
3,1,1,0,0,509,509
4,1,1,0,0,510,511
5,1,1,0,0,509,511
6,1,1,0,0,508,510
7,1,1,0,0,509,513
8,1,1,0,0,510,510
9,1,1,0,0,511,508
10,1,1,0,0,512,512
11,1,1,0,0,513,509
12,1,1,0,0,514,507
13,1,1,0,0,515,508
14,1,1,0,0,517,510
15,1,1,0,0,518,510
0,1,1,0,0,519,510
1,1,1,0,0,518,506
2,1,1,0,0,516,509
3,1,1,0,0,513,510
4,1,1,0,0,510,510
5,1,1,0,0,507,509
6,1,1,0,0,504,506
7,1,1,0,0,501,509
8,1,1,0,0,500,512
9,1,1,0,0,500,509
10,1,1,0,0,500,508
11,1,1,0,0,502,508
12,1,1,0,0,504,507
13,1,1,0,0,504,506
14,1,1,0,0,507,509
15,1,1,0,0,508,508
0,1,1,0,0,508,504
1,1,1,0,0,510,507
2,1,1,0,0,511,509
3,1,1,0,0,511,508
4,1,1,0,0,511,507
5,1,1,0,0,510,504
6,1,1,0,0,511,506
7,1,1,0,0,511,508
8,1,1,0,0,513,506
9,1,1,0,0,515,510
10,1,1,0,0,517,504
11,1,1,0,0,517,506
12,1,1,0,0,517,508
13,1,1,0,0,517,507
14,1,1,0,0,516,506
15,1,1,0,0,515,504
0,1,1,0,0,515,506
1,1,1,0,0,515,507
2,1,1,0,0,514,506
3,1,1,0,0,513,510
4,1,1,0,0,511,504
5,1,1,0,0,509,507
6,1,1,0,0,507,505
7,1,1,0,0,506,508
8,1,1,0,0,504,508
9,1,1,0,0,504,504
10,1,1,0,0,505,507
11,1,1,0,0,507,509
12,1,1,0,0,509,507
13,1,1,0,0,511,505
14,1,1,0,0,512,506
15,1,1,0,0,512,505
0,1,1,0,0,513,507
1,1,1,0,0,512,507
2,1,1,0,0,512,506
3,1,1,0,0,511,506
4,1,1,0,0,510,505
5,1,1,0,0,510,505
6,1,1,0,0,510,510
7,1,1,0,0,512,505
8,1,1,0,0,512,508
9,1,1,0,0,511,505
10,1,1,0,0,511,506
11,1,1,0,0,511,506
12,1,1,0,0,509,504
13,1,1,0,0,507,502
14,1,1,0,0,506,505
15,1,1,0,0,504,506
0,1,1,0,0,502,506
1,1,1,0,0,500,505
2,1,1,0,0,500,506
3,1,1,0,0,500,504
4,1,1,0,0,500,506
5,1,1,0,0,501,507
6,1,1,0,0,502,505
7,1,1,0,0,503,505
8,1,1,0,0,504,506
9,1,1,0,0,505,504
10,1,1,0,0,505,508
11,1,1,0,0,507,505
12,1,1,0,0,508,504
13,1,1,0,0,508,505
14,1,1,0,0,508,507
15,1,1,0,0,508,506
0,1,1,0,0,507,505
1,1,1,0,0,506,503
2,1,1,0,0,505,505
3,1,1,0,0,504,507
4,1,1,0,0,504,505
5,1,1,0,0,504,509
6,1,1,0,0,502,504
7,1,1,0,0,500,506
8,1,1,0,0,499,505
9,1,1,0,0,498,509
10,1,1,0,0,498,507
11,1,1,0,0,499,504
12,1,1,0,0,501,506
13,1,1,0,0,503,507
14,1,1,0,0,504,508
15,1,1,0,0,507,506
0,1,1,0,0,510,508
1,1,1,0,0,513,506
2,1,1,0,0,515,506
3,1,1,0,0,517,509
4,1,1,0,0,519,508
5,1,1,0,0,521,507
6,1,1,0,0,524,511
7,1,1,0,0,527,509
8,1,1,0,0,529,508
9,1,1,0,0,530,507
10,1,1,0,0,530,505
11,1,1,0,0,528,507
12,1,1,0,0,527,508
13,1,1,0,0,527,508
14,1,1,0,0,527,508
15,1,1,0,0,526,504
0,1,1,0,0,526,507
1,1,1,0,0,526,508
2,1,1,0,0,527,508
3,1,1,0,0,528,508
4,1,1,0,0,529,505
5,1,1,0,0,529,508
6,1,1,0,0,529,512
7,1,1,0,0,528,509
8,1,1,0,0,526,507
9,1,1,0,0,525,504
10,1,1,0,0,525,511
11,1,1,0,0,524,510
12,1,1,0,0,523,507
13,1,1,0,0,524,507
14,1,1,0,0,524,505
15,1,1,0,0,524,507
0,1,1,0,0,524,508
1,1,1,0,0,523,508
2,1,1,0,0,522,508
3,1,1,0,0,522,505
4,1,1,0,0,522,507
5,1,1,0,0,523,510
6,1,1,0,0,524,508
7,1,1,0,0,522,511
8,1,1,0,0,520,507
9,1,1,0,0,518,509
10,1,1,0,0,517,509
11,1,1,0,0,515,509
12,1,1,0,0,515,508
13,1,1,0,0,514,505
14,1,1,0,0,513,508
15,1,1,0,0,512,509
0,1,1,0,0,511,510
1,1,1,0,0,508,508
2,1,1,0,0,507,510
3,1,1,0,0,506,509
4,1,1,0,0,505,510
5,1,1,0,0,504,510
6,1,1,0,0,504,510
7,1,1,0,0,504,510
8,1,1,0,0,504,510
9,1,1,0,0,504,508
10,1,1,0,0,505,513
11,1,1,0,0,507,510
12,1,1,0,0,509,507
13,1,1,0,0,510,510
14,1,1,0,0,511,511
15,1,1,0,0,512,511
0,1,1,0,0,512,509
1,1,1,0,0,513,511
2,1,1,0,0,514,510
3,1,1,0,0,514,509
4,1,1,0,0,514,513
5,1,1,0,0,513,511
6,1,1,0,0,513,513
7,1,1,0,0,513,510
8,1,1,0,0,513,512
9,1,1,0,0,513,512
10,1,1,0,0,513,510
11,1,1,0,0,512,508
12,1,1,0,0,512,510
13,1,1,0,0,512,512
14,1,1,0,0,512,511
15,1,1,0,0,513,511
0,1,1,0,0,512,508
1,1,1,0,0,512,511
2,1,1,0,0,511,511
3,1,1,0,0,510,512
4,1,1,0,0,508,511
5,1,1,0,0,509,508
6,1,1,0,0,508,511
7,1,1,0,0,508,515
8,1,1,0,0,508,510
9,1,1,0,0,508,514
10,1,1,0,0,507,507
11,1,1,0,0,505,510
12,1,1,0,0,504,512
13,1,1,0,0,504,512
14,1,1,0,0,503,510
15,1,1,0,0,504,508
0,1,1,0,0,504,510
1,1,1,0,0,505,511
2,1,1,0,0,507,510
3,1,1,0,0,508,514
4,1,1,0,0,509,509
5,1,1,0,0,510,511
6,1,1,0,0,511,510
7,1,1,0,0,512,512
8,1,1,0,0,511,513
9,1,1,0,0,510,509
10,1,1,0,0,509,511
11,1,1,0,0,507,513
12,1,1,0,0,507,511
13,1,1,0,0,507,510
14,1,1,0,0,506,511
15,1,1,0,0,508,510
0,1,1,0,0,509,512
1,1,1,0,0,510,511
2,1,1,0,0,511,511
3,1,1,0,0,512,511
4,1,1,0,0,513,510
5,1,1,0,0,513,510
6,1,1,0,0,513,515
7,1,1,0,0,515,510
8,1,1,0,0,515,512
9,1,1,0,0,517,510
10,1,1,0,0,518,512
11,1,1,0,0,519,510
12,1,1,0,0,518,510
13,1,1,0,0,517,511
14,1,1,0,0,516,509
15,1,1,0,0,515,511
0,1,1,0,0,515,510
1,1,1,0,0,515,510
2,1,1,0,0,516,511
3,1,1,0,0,518,509
4,1,1,0,0,521,510
5,1,1,0,0,527,510
6,1,1,0,0,535,510
7,1,1,0,0,542,509
8,1,1,0,0,550,508
9,1,1,0,0,557,511
10,1,1,0,0,564,508
11,1,1,0,0,570,507
12,1,1,0,0,575,508
13,1,1,0,0,578,507
14,1,1,0,0,579,508
15,1,1,0,0,581,509
0,1,1,0,0,581,508
1,1,1,0,0,581,508
2,1,1,0,0,583,508
3,1,1,0,0,585,509
4,1,1,0,0,588,509
5,1,1,0,0,588,509
6,1,1,0,0,586,508
7,1,1,0,0,583,508
8,1,1,0,0,577,509
9,1,1,0,0,571,508
10,1,1,0,0,563,506
11,1,1,0,0,551,506
12,1,1,0,0,539,505
13,1,1,0,0,528,507
14,1,1,0,0,518,507
15,1,1,0,0,510,507
0,1,1,0,0,504,507
1,1,1,0,0,498,505
2,1,1,0,0,492,507
3,1,1,0,0,483,508
4,1,1,0,0,468,507
5,1,1,0,0,450,508
6,1,1,0,0,428,507
7,1,1,0,0,399,508
8,1,1,0,0,365,507
9,1,1,0,0,329,505
10,1,1,0,0,298,508
11,1,1,0,0,275,505
12,1,1,0,0,257,507
13,1,1,0,0,243,507
14,1,1,0,0,236,507
15,1,1,0,0,231,508
0,1,1,0,0,227,506
1,1,1,0,0,220,505
2,1,1,0,0,216,509
3,1,1,0,0,216,507
4,1,1,0,0,223,509
5,1,1,0,0,233,507
6,1,1,0,0,247,506
7,1,1,0,0,263,512
8,1,1,0,0,281,506
9,1,1,0,0,299,510
10,1,1,0,0,318,507
11,1,1,0,0,335,506
12,1,1,0,0,355,510
13,1,1,0,0,375,508
14,1,1,0,0,397,510
15,1,1,0,0,419,507
0,1,1,0,0,440,508
1,1,1,0,0,459,509
2,1,1,0,0,475,507
3,1,1,0,0,488,505
4,1,1,0,0,501,508
5,1,1,0,0,514,507
6,1,1,0,0,527,510
7,1,1,0,0,537,510
8,1,1,0,0,547,507
9,1,1,0,0,554,509
10,1,1,0,0,559,509
11,1,1,0,0,563,509
12,1,1,0,0,565,508
13,1,1,0,0,568,506
14,1,1,0,0,568,508
15,1,1,0,0,569,510
0,1,1,0,0,570,509
1,1,1,0,0,571,510
2,1,1,0,0,571,506
3,1,1,0,0,571,508
4,1,1,0,0,572,511
5,1,1,0,0,572,509
6,1,1,0,0,573,509
7,1,1,0,0,576,511
8,1,1,0,0,579,508
9,1,1,0,0,582,509
10,1,1,0,0,587,510
11,1,1,0,0,591,508
12,1,1,0,0,595,506
13,1,1,0,0,597,508
14,1,1,0,0,597,509
15,1,1,0,0,595,509
0,1,1,0,0,591,508
1,1,1,0,0,588,509
2,1,1,0,0,583,508
3,1,1,0,0,578,509
4,1,1,0,0,575,510
5,1,1,0,0,572,508
6,1,1,0,0,569,511
7,1,1,0,0,568,508
8,1,1,0,0,567,508
9,1,1,0,0,567,511
10,1,1,0,0,568,508
11,1,1,0,0,569,509
12,1,1,0,0,572,507
13,1,1,0,0,573,508
14,1,1,0,0,574,509
15,1,1,0,0,574,508
0,1,1,0,0,573,505
1,1,1,0,0,572,508
2,1,1,0,0,570,509
3,1,1,0,0,568,509
4,1,1,0,0,568,508
5,1,1,0,0,568,511
6,1,1,0,0,567,509
7,1,1,0,0,567,509
8,1,1,0,0,567,507
9,1,1,0,0,568,511
10,1,1,0,0,568,504
11,1,1,0,0,569,507
12,1,1,0,0,569,509
13,1,1,0,0,568,509
14,1,1,0,0,568,507
15,1,1,0,0,566,505
0,1,1,0,0,565,507
1,1,1,0,0,564,508
2,1,1,0,0,564,507
3,1,1,0,0,563,511
4,1,1,0,0,563,506
5,1,1,0,0,564,508
6,1,1,0,0,566,507
7,1,1,0,0,566,510
8,1,1,0,0,566,510
9,1,1,0,0,565,505
10,1,1,0,0,564,508
11,1,1,0,0,563,510
12,1,1,0,0,562,508
13,1,1,0,0,561,507
14,1,1,0,0,559,508
15,1,1,0,0,558,507
0,1,1,0,0,557,508
1,1,1,0,0,556,508
2,1,1,0,0,556,508
3,1,1,0,0,556,508
4,1,1,0,0,558,506
5,1,1,0,0,560,506
6,1,1,0,0,562,511
7,1,1,0,0,563,507
8,1,1,0,0,564,510
9,1,1,0,0,564,507
10,1,1,0,0,565,507
11,1,1,0,0,564,508
12,1,1,0,0,564,507
13,1,1,0,0,563,504
14,1,1,0,0,564,506
15,1,1,0,0,564,509
0,1,1,0,0,564,508
1,1,1,0,0,564,507
2,1,1,0,0,564,508
3,1,1,0,0,563,507
4,1,1,0,0,562,508
5,1,1,0,0,561,508
6,1,1,0,0,562,507
7,1,1,0,0,564,507
8,1,1,0,0,565,508
9,1,1,0,0,566,506
10,1,1,0,0,566,511
11,1,1,0,0,566,507
12,1,1,0,0,565,505
13,1,1,0,0,564,506
14,1,1,0,0,562,508
15,1,1,0,0,559,508
0,1,1,0,0,557,506
1,1,1,0,0,557,504
2,1,1,0,0,557,506
3,1,1,0,0,556,507
4,1,1,0,0,555,505
5,1,1,0,0,555,509
6,1,1,0,0,554,504
7,1,1,0,0,553,507
8,1,1,0,0,552,508
9,1,1,0,0,552,508
10,1,1,0,0,551,507
11,1,1,0,0,552,509
12,1,1,0,0,553,507
13,1,1,0,0,556,509
14,1,1,0,0,557,509
15,1,1,0,0,557,508
0,1,1,0,0,558,506
1,1,1,0,0,559,507
2,1,1,0,0,560,507
3,1,1,0,0,561,510
4,1,1,0,0,562,509
5,1,1,0,0,562,507
6,1,1,0,0,562,512
7,1,1,0,0,561,509
8,1,1,0,0,559,508
9,1,1,0,0,558,508
10,1,1,0,0,558,505
11,1,1,0,0,558,508
12,1,1,0,0,559,508
13,1,1,0,0,560,508
14,1,1,0,0,561,508
15,1,1,0,0,563,504
0,1,1,0,0,565,507
1,1,1,0,0,567,508
2,1,1,0,0,568,508
3,1,1,0,0,568,508
4,1,1,0,0,568,505
5,1,1,0,0,568,507
6,1,1,0,0,569,511
7,1,1,0,0,570,506
8,1,1,0,0,571,509
9,1,1,0,0,572,503
10,1,1,0,0,572,506
11,1,1,0,0,572,509
12,1,1,0,0,571,507
13,1,1,0,0,571,505
14,1,1,0,0,570,503
15,1,1,0,0,572,505
0,1,1,0,0,575,507
1,1,1,0,0,578,507
2,1,1,0,0,580,507
3,1,1,0,0,581,507
4,1,1,0,0,581,505
5,1,1,0,0,580,507
6,1,1,0,0,579,506
7,1,1,0,0,578,510
8,1,1,0,0,576,504
9,1,1,0,0,573,507
10,1,1,0,0,571,509
11,1,1,0,0,571,504
12,1,1,0,0,571,506
13,1,1,0,0,571,503
14,1,1,0,0,570,505
15,1,1,0,0,570,507
0,1,1,0,0,570,507
1,1,1,0,0,569,505
2,1,1,0,0,570,507
3,1,1,0,0,571,505
4,1,1,0,0,571,505
5,1,1,0,0,571,509
6,1,1,0,0,570,508
7,1,1,0,0,570,504
8,1,1,0,0,573,506
9,1,1,0,0,577,508
10,1,1,0,0,580,506
11,1,1,0,0,584,510
12,1,1,0,0,587,504
13,1,1,0,0,588,507
14,1,1,0,0,588,508
15,1,1,0,0,587,508
0,1,1,0,0,583,508
1,1,1,0,0,578,505
2,1,1,0,0,572,507
3,1,1,0,0,563,509
4,1,1,0,0,555,508
5,1,1,0,0,548,508
6,1,1,0,0,542,510
7,1,1,0,0,538,508
8,1,1,0,0,536,509
9,1,1,0,0,535,509
10,1,1,0,0,533,507
11,1,1,0,0,531,504
12,1,1,0,0,531,507
13,1,1,0,0,529,508
14,1,1,0,0,528,508
15,1,1,0,0,527,508
0,1,1,0,0,526,508
1,1,1,0,0,526,507
2,1,1,0,0,526,508
3,1,1,0,0,524,508
4,1,1,0,0,522,508
5,1,1,0,0,520,508
6,1,1,0,0,517,508
7,1,1,0,0,514,510
8,1,1,0,0,511,508
9,1,1,0,0,506,507
10,1,1,0,0,501,507
11,1,1,0,0,496,506
12,1,1,0,0,491,507
13,1,1,0,0,485,507
14,1,1,0,0,481,508
15,1,1,0,0,478,507
0,1,1,0,0,475,506
1,1,1,0,0,474,508
2,1,1,0,0,473,508
3,1,1,0,0,472,508
4,1,1,0,0,471,508
5,1,1,0,0,470,507
6,1,1,0,0,469,510
7,1,1,0,0,467,509
8,1,1,0,0,466,507
9,1,1,0,0,465,507
10,1,1,0,0,464,507
11,1,1,0,0,464,508
12,1,1,0,0,463,504
13,1,1,0,0,463,509
14,1,1,0,0,461,504
15,1,1,0,0,460,511
0,1,1,0,0,459,508
1,1,1,0,0,457,507
2,1,1,0,0,454,511
3,1,1,0,0,452,505
4,1,1,0,0,452,513
5,1,1,0,0,453,509
6,1,1,0,0,454,508
7,1,1,0,0,454,511
8,1,1,0,0,455,507
9,1,1,0,0,455,511
10,1,1,0,0,455,512
11,1,1,0,0,455,508
12,1,1,0,0,456,510
13,1,1,0,0,456,510
14,1,1,0,0,458,509
15,1,1,0,0,458,511
0,1,1,0,0,458,511
1,1,1,0,0,458,510
2,1,1,0,0,456,510
3,1,1,0,0,455,510
4,1,1,0,0,454,512
5,1,1,0,0,451,510
6,1,1,0,0,450,513
7,1,1,0,0,450,508
8,1,1,0,0,451,511
9,1,1,0,0,453,513
10,1,1,0,0,456,512
11,1,1,0,0,460,510
12,1,1,0,0,463,508
13,1,1,0,0,465,510
14,1,1,0,0,467,512
15,1,1,0,0,470,512
0,1,1,0,0,471,512
1,1,1,0,0,471,512
2,1,1,0,0,471,511
3,1,1,0,0,470,513
4,1,1,0,0,469,511
5,1,1,0,0,467,515
6,1,1,0,0,465,510
7,1,1,0,0,464,515
8,1,1,0,0,462,515
9,1,1,0,0,460,511
10,1,1,0,0,459,512
11,1,1,0,0,457,509
12,1,1,0,0,458,512
13,1,1,0,0,460,513
14,1,1,0,0,462,513
15,1,1,0,0,464,513
0,1,1,0,0,466,510
1,1,1,0,0,469,512
2,1,1,0,0,471,513
3,1,1,0,0,473,514
4,1,1,0,0,474,513
5,1,1,0,0,474,510
6,1,1,0,0,474,513
7,1,1,0,0,472,516
8,1,1,0,0,469,514
9,1,1,0,0,467,513
10,1,1,0,0,465,513
11,1,1,0,0,464,512
12,1,1,0,0,463,513
13,1,1,0,0,463,513
14,1,1,0,0,464,513
15,1,1,0,0,466,513
0,1,1,0,0,467,512
1,1,1,0,0,469,513
2,1,1,0,0,471,514
3,1,1,0,0,473,514
4,1,1,0,0,476,514
5,1,1,0,0,477,513
6,1,1,0,0,477,517
7,1,1,0,0,476,515
8,1,1,0,0,475,513
9,1,1,0,0,474,513
10,1,1,0,0,475,512
11,1,1,0,0,473,514
12,1,1,0,0,472,512
13,1,1,0,0,472,512
14,1,1,0,0,472,511
15,1,1,0,0,473,516
0,1,1,0,0,475,513
1,1,1,0,0,476,514
2,1,1,0,0,476,513
3,1,1,0,0,477,513
4,1,1,0,0,478,512
5,1,1,0,0,480,514
6,1,1,0,0,482,514
7,1,1,0,0,484,514
8,1,1,0,0,487,513
9,1,1,0,0,490,513
10,1,1,0,0,492,514
11,1,1,0,0,493,512
12,1,1,0,0,494,513
13,1,1,0,0,494,513
14,1,1,0,0,493,512
15,1,1,0,0,492,513
0,1,1,0,0,491,514
1,1,1,0,0,490,513
2,1,1,0,0,488,513
3,1,1,0,0,487,512
4,1,1,0,0,485,513
5,1,1,0,0,484,513
6,1,1,0,0,484,513
7,1,1,0,0,486,512
8,1,1,0,0,487,511
9,1,1,0,0,489,513
10,1,1,0,0,491,511
11,1,1,0,0,492,510
12,1,1,0,0,494,511
13,1,1,0,0,495,510
14,1,1,0,0,495,511
15,1,1,0,0,495,512
0,1,1,0,0,496,511
1,1,1,0,0,495,509
2,1,1,0,0,493,511
3,1,1,0,0,492,510
4,1,1,0,0,490,513
5,1,1,0,0,489,512
6,1,1,0,0,488,512
7,1,1,0,0,488,510
8,1,1,0,0,487,510
9,1,1,0,0,487,515
10,1,1,0,0,486,510
11,1,1,0,0,486,513
12,1,1,0,0,486,511
13,1,1,0,0,487,510
14,1,1,0,0,487,514
15,1,1,0,0,489,511
0,1,1,0,0,492,513
1,1,1,0,0,494,511
2,1,1,0,0,495,511
3,1,1,0,0,496,515
4,1,1,0,0,497,512
5,1,1,0,0,497,513
6,1,1,0,0,499,512
7,1,1,0,0,499,511
8,1,1,0,0,499,515
9,1,1,0,0,499,513
10,1,1,0,0,500,515
11,1,1,0,0,500,512
12,1,1,0,0,501,513
13,1,1,0,0,502,513
14,1,1,0,0,503,512
15,1,1,0,0,503,509
0,1,1,0,0,504,511
1,1,1,0,0,504,512
2,1,1,0,0,505,512
3,1,1,0,0,506,511
4,1,1,0,0,508,514
5,1,1,0,0,509,512
6,1,1,0,0,510,511
7,1,1,0,0,510,515
8,1,1,0,0,508,511
9,1,1,0,0,507,509
10,1,1,0,0,507,511
11,1,1,0,0,506,512
12,1,1,0,0,506,511
13,1,1,0,0,505,510
14,1,1,0,0,504,508
15,1,1,0,0,502,510
0,1,1,0,0,500,511
1,1,1,0,0,498,511
2,1,1,0,0,498,511
3,1,1,0,0,498,511
4,1,1,0,0,499,510
5,1,1,0,0,501,511
6,1,1,0,0,503,510
7,1,1,0,0,504,513
8,1,1,0,0,506,507
9,1,1,0,0,508,512
10,1,1,0,0,509,512
11,1,1,0,0,511,510
12,1,1,0,0,512,510
13,1,1,0,0,512,506
14,1,1,0,0,512,509
15,1,1,0,0,511,510
0,1,1,0,0,511,510
1,1,1,0,0,511,510
2,1,1,0,0,510,506
3,1,1,0,0,509,509
4,1,1,0,0,508,511
5,1,1,0,0,507,510
6,1,1,0,0,505,510
7,1,1,0,0,504,511
8,1,1,0,0,505,509
9,1,1,0,0,505,510
10,1,1,0,0,506,510
11,1,1,0,0,506,508
12,1,1,0,0,506,505
13,1,1,0,0,507,507
14,1,1,0,0,507,509
15,1,1,0,0,508,509
0,1,1,0,0,507,508
1,1,1,0,0,506,509
2,1,1,0,0,505,508
3,1,1,0,0,503,509
4,1,1,0,0,502,510
5,1,1,0,0,502,508
6,1,1,0,0,502,511
7,1,1,0,0,503,509
8,1,1,0,0,502,507
9,1,1,0,0,503,511
10,1,1,0,0,504,508
11,1,1,0,0,505,505
12,1,1,0,0,508,507
13,1,1,0,0,510,508
14,1,1,0,0,513,508
15,1,1,0,0,515,508
0,1,1,0,0,516,508
1,1,1,0,0,517,507
2,1,1,0,0,518,506
3,1,1,0,0,518,510
4,1,1,0,0,516,508
5,1,1,0,0,513,505
6,1,1,0,0,510,511
7,1,1,0,0,506,509
8,1,1,0,0,504,508
9,1,1,0,0,502,508
10,1,1,0,0,501,504
11,1,1,0,0,499,507
12,1,1,0,0,498,507
13,1,1,0,0,497,508
14,1,1,0,0,497,506
15,1,1,0,0,497,503
0,1,1,0,0,497,506
1,1,1,0,0,499,507
2,1,1,0,0,500,505
3,1,1,0,0,501,510
4,1,1,0,0,502,504
5,1,1,0,0,503,506
6,1,1,0,0,503,506
7,1,1,0,0,504,510
8,1,1,0,0,504,507
9,1,1,0,0,504,504
10,1,1,0,0,504,507
11,1,1,0,0,504,508
12,1,1,0,0,503,507
13,1,1,0,0,503,505
14,1,1,0,0,502,506
15,1,1,0,0,502,505
0,1,1,0,0,503,507
1,1,1,0,0,504,507
2,1,1,0,0,505,507
3,1,1,0,0,507,507
4,1,1,0,0,508,505
5,1,1,0,0,509,505
6,1,1,0,0,510,510
7,1,1,0,0,513,505
8,1,1,0,0,514,509
9,1,1,0,0,516,506
10,1,1,0,0,517,507
11,1,1,0,0,518,506
12,1,1,0,0,518,505
13,1,1,0,0,519,503
14,1,1,0,0,520,505
15,1,1,0,0,521,506
0,1,1,0,0,523,507
1,1,1,0,0,525,506
2,1,1,0,0,525,503
3,1,1,0,0,525,505
4,1,1,0,0,524,506
5,1,1,0,0,522,507
6,1,1,0,0,521,507
7,1,1,0,0,522,503
8,1,1,0,0,524,506
9,1,1,0,0,527,510
10,1,1,0,0,531,505
11,1,1,0,0,534,508
12,1,1,0,0,536,504
13,1,1,0,0,537,507
14,1,1,0,0,537,508
15,1,1,0,0,536,508
0,1,1,0,0,532,507
1,1,1,0,0,529,504
2,1,1,0,0,526,506
3,1,1,0,0,521,509
4,1,1,0,0,518,507
5,1,1,0,0,516,507
6,1,1,0,0,515,509
7,1,1,0,0,514,508
8,1,1,0,0,513,509
9,1,1,0,0,511,509
10,1,1,0,0,511,507
11,1,1,0,0,511,504
12,1,1,0,0,511,507
13,1,1,0,0,512,508
14,1,1,0,0,511,508
15,1,1,0,0,511,507
0,1,1,0,0,511,508
1,1,1,0,0,511,507
2,1,1,0,0,511,508
3,1,1,0,0,510,509
4,1,1,0,0,510,508
5,1,1,0,0,510,506
6,1,1,0,0,509,508
7,1,1,0,0,507,506
8,1,1,0,0,506,511
9,1,1,0,0,506,508
10,1,1,0,0,505,505
11,1,1,0,0,505,508
12,1,1,0,0,504,507
13,1,1,0,0,504,508
14,1,1,0,0,504,507
15,1,1,0,0,504,508
0,1,1,0,0,504,507
1,1,1,0,0,504,508
2,1,1,0,0,505,508
3,1,1,0,0,506,508
4,1,1,0,0,507,508
5,1,1,0,0,509,507
6,1,1,0,0,510,507
7,1,1,0,0,513,512
8,1,1,0,0,514,507
9,1,1,0,0,513,510
10,1,1,0,0,513,507
11,1,1,0,0,511,510
12,1,1,0,0,509,509
13,1,1,0,0,507,508
14,1,1,0,0,504,504
15,1,1,0,0,504,507
0,1,1,0,0,503,509
1,1,1,0,0,502,509
2,1,1,0,0,502,509
3,1,1,0,0,503,509
4,1,1,0,0,505,508
5,1,1,0,0,507,509
6,1,1,0,0,511,509
7,1,1,0,0,515,510
8,1,1,0,0,516,510
9,1,1,0,0,517,508
10,1,1,0,0,517,511
11,1,1,0,0,515,508
12,1,1,0,0,512,511
13,1,1,0,0,510,507
14,1,1,0,0,507,511
15,1,1,0,0,504,509
0,1,1,0,0,500,512
1,1,1,0,0,496,511
2,1,1,0,0,494,508
3,1,1,0,0,494,510
4,1,1,0,0,493,511
5,1,1,0,0,493,510
6,1,1,0,0,494,509
7,1,1,0,0,494,507
8,1,1,0,0,496,509
9,1,1,0,0,497,510
10,1,1,0,0,499,509
11,1,1,0,0,500,512
12,1,1,0,0,503,507
13,1,1,0,0,504,510
14,1,1,0,0,506,511
15,1,1,0,0,508,511
0,1,1,0,0,510,510
1,1,1,0,0,511,508
2,1,1,0,0,512,510
3,1,1,0,0,512,512
4,1,1,0,0,512,511
5,1,1,0,0,511,511
6,1,1,0,0,509,512
7,1,1,0,0,508,510
8,1,1,0,0,507,511
9,1,1,0,0,506,511
10,1,1,0,0,505,510
11,1,1,0,0,506,507
12,1,1,0,0,507,509
13,1,1,0,0,507,510
14,1,1,0,0,509,511
15,1,1,0,0,511,509
0,1,1,0,0,512,510
1,1,1,0,0,514,509
2,1,1,0,0,515,510
3,1,1,0,0,515,511
4,1,1,0,0,514,510
5,1,1,0,0,513,509
6,1,1,0,0,512,511
7,1,1,0,0,512,508
8,1,1,0,0,512,512
9,1,1,0,0,512,509
10,1,1,0,0,515,507
11,1,1,0,0,519,508
12,1,1,0,0,524,510
13,1,1,0,0,530,510
14,1,1,0,0,537,509
15,1,1,0,0,545,506
0,1,1,0,0,552,508
1,1,1,0,0,560,510
2,1,1,0,0,567,510
3,1,1,0,0,573,510
4,1,1,0,0,578,510
5,1,1,0,0,582,509
6,1,1,0,0,583,510
7,1,1,0,0,582,509
8,1,1,0,0,579,512
9,1,1,0,0,575,507
10,1,1,0,0,572,514
11,1,1,0,0,570,512
12,1,1,0,0,569,509
13,1,1,0,0,568,509
14,1,1,0,0,568,507
15,1,1,0,0,568,509
0,1,1,0,0,567,510
1,1,1,0,0,565,510
2,1,1,0,0,561,510
3,1,1,0,0,555,507
4,1,1,0,0,546,509
5,1,1,0,0,537,511
6,1,1,0,0,527,509
7,1,1,0,0,518,512
8,1,1,0,0,509,507
9,1,1,0,0,503,510
10,1,1,0,0,495,510
11,1,1,0,0,486,510
12,1,1,0,0,475,510
13,1,1,0,0,461,505
14,1,1,0,0,444,508
15,1,1,0,0,423,510
0,1,1,0,0,396,510
1,1,1,0,0,364,509
2,1,1,0,0,331,510
3,1,1,0,0,303,508
4,1,1,0,0,281,509
5,1,1,0,0,264,510
6,1,1,0,0,252,509
7,1,1,0,0,244,509
8,1,1,0,0,240,509
9,1,1,0,0,234,511
10,1,1,0,0,227,508
11,1,1,0,0,224,508
12,1,1,0,0,225,508
13,1,1,0,0,232,507
14,1,1,0,0,243,509
15,1,1,0,0,257,509
0,1,1,0,0,272,508
1,1,1,0,0,289,508
2,1,1,0,0,306,508
3,1,1,0,0,323,509
4,1,1,0,0,341,509
5,1,1,0,0,360,509
6,1,1,0,0,381,508
7,1,1,0,0,403,508
8,1,1,0,0,426,509
9,1,1,0,0,447,508
10,1,1,0,0,466,506
11,1,1,0,0,482,506
12,1,1,0,0,498,505
13,1,1,0,0,512,507
14,1,1,0,0,526,507
15,1,1,0,0,538,507
0,1,1,0,0,548,509
1,1,1,0,0,557,507
2,1,1,0,0,563,508
3,1,1,0,0,566,508
4,1,1,0,0,568,508
5,1,1,0,0,566,508
6,1,1,0,0,564,507
7,1,1,0,0,562,509
8,1,1,0,0,560,507
9,1,1,0,0,560,506
10,1,1,0,0,560,505
11,1,1,0,0,561,505
12,1,1,0,0,561,505
13,1,1,0,0,562,506
14,1,1,0,0,564,506
15,1,1,0,0,565,505
0,1,1,0,0,568,504
1,1,1,0,0,568,506
2,1,1,0,0,568,507
3,1,1,0,0,569,507
4,1,1,0,0,568,507
5,1,1,0,0,567,506
6,1,1,0,0,566,508
7,1,1,0,0,567,507
8,1,1,0,0,567,505
9,1,1,0,0,567,503
10,1,1,0,0,567,504
11,1,1,0,0,568,509
12,1,1,0,0,571,506
13,1,1,0,0,574,505
14,1,1,0,0,574,507
15,1,1,0,0,574,505
0,1,1,0,0,573,505
1,1,1,0,0,572,508
2,1,1,0,0,570,506
3,1,1,0,0,568,509
4,1,1,0,0,565,507
5,1,1,0,0,563,506
6,1,1,0,0,561,508
7,1,1,0,0,560,507
8,1,1,0,0,560,511
9,1,1,0,0,558,508
10,1,1,0,0,557,506
11,1,1,0,0,557,510
12,1,1,0,0,558,507
13,1,1,0,0,558,506
14,1,1,0,0,557,508
15,1,1,0,0,558,507
0,1,1,0,0,559,510
1,1,1,0,0,559,510
2,1,1,0,0,560,505
3,1,1,0,0,561,508
4,1,1,0,0,563,511
5,1,1,0,0,563,509
6,1,1,0,0,564,509
7,1,1,0,0,565,507
8,1,1,0,0,567,507
9,1,1,0,0,566,507
10,1,1,0,0,567,511
11,1,1,0,0,567,508
12,1,1,0,0,566,505
13,1,1,0,0,566,508
14,1,1,0,0,565,509
15,1,1,0,0,564,510
0,1,1,0,0,563,510
1,1,1,0,0,563,506
2,1,1,0,0,566,509
3,1,1,0,0,568,510
4,1,1,0,0,568,510
5,1,1,0,0,568,510
6,1,1,0,0,567,506
7,1,1,0,0,564,509
8,1,1,0,0,563,513
9,1,1,0,0,562,508
10,1,1,0,0,560,511
11,1,1,0,0,558,505
12,1,1,0,0,556,507
13,1,1,0,0,554,509
14,1,1,0,0,553,510
15,1,1,0,0,553,509
0,1,1,0,0,551,509
1,1,1,0,0,550,508
2,1,1,0,0,548,510
3,1,1,0,0,547,510
4,1,1,0,0,546,509
5,1,1,0,0,546,512
6,1,1,0,0,547,510
7,1,1,0,0,547,507
8,1,1,0,0,548,512
9,1,1,0,0,548,508
10,1,1,0,0,548,506
11,1,1,0,0,547,507
12,1,1,0,0,547,509
13,1,1,0,0,548,508
14,1,1,0,0,548,508
15,1,1,0,0,550,505
0,1,1,0,0,551,508
1,1,1,0,0,552,509
2,1,1,0,0,554,509
3,1,1,0,0,556,509
4,1,1,0,0,556,509
5,1,1,0,0,556,508
6,1,1,0,0,556,509
7,1,1,0,0,555,508
8,1,1,0,0,555,512
9,1,1,0,0,555,506
10,1,1,0,0,555,513
11,1,1,0,0,554,512
12,1,1,0,0,555,508
13,1,1,0,0,555,508
14,1,1,0,0,555,505
15,1,1,0,0,555,508
0,1,1,0,0,554,509
1,1,1,0,0,553,509
2,1,1,0,0,552,509
3,1,1,0,0,551,506
4,1,1,0,0,551,508
5,1,1,0,0,552,510
6,1,1,0,0,553,508
7,1,1,0,0,553,511
8,1,1,0,0,553,506
9,1,1,0,0,555,508
10,1,1,0,0,556,509
11,1,1,0,0,557,508
12,1,1,0,0,559,508
13,1,1,0,0,560,505
14,1,1,0,0,562,508
15,1,1,0,0,562,509
0,1,1,0,0,563,509
1,1,1,0,0,562,508
2,1,1,0,0,561,509
3,1,1,0,0,561,507
4,1,1,0,0,561,509
5,1,1,0,0,560,509
6,1,1,0,0,559,508
7,1,1,0,0,559,510
8,1,1,0,0,559,509
9,1,1,0,0,559,507
10,1,1,0,0,559,511
11,1,1,0,0,560,508
12,1,1,0,0,561,505
13,1,1,0,0,564,507
14,1,1,0,0,567,509
15,1,1,0,0,569,509
0,1,1,0,0,571,509
1,1,1,0,0,572,509
2,1,1,0,0,572,507
3,1,1,0,0,570,507
4,1,1,0,0,568,511
5,1,1,0,0,567,508
6,1,1,0,0,565,510
7,1,1,0,0,562,508
8,1,1,0,0,559,509
9,1,1,0,0,557,509
10,1,1,0,0,556,508
11,1,1,0,0,555,505
12,1,1,0,0,556,507
13,1,1,0,0,557,508
14,1,1,0,0,558,509
15,1,1,0,0,560,508
0,1,1,0,0,561,508
1,1,1,0,0,563,508
2,1,1,0,0,566,508
3,1,1,0,0,567,509
4,1,1,0,0,569,509
5,1,1,0,0,571,509
6,1,1,0,0,572,508
7,1,1,0,0,572,510
8,1,1,0,0,572,508
9,1,1,0,0,571,507
10,1,1,0,0,567,507
11,1,1,0,0,564,506
12,1,1,0,0,562,507
13,1,1,0,0,561,507
14,1,1,0,0,560,508
15,1,1,0,0,558,507
0,1,1,0,0,558,505
1,1,1,0,0,557,508
2,1,1,0,0,558,508
3,1,1,0,0,559,508
4,1,1,0,0,559,508
5,1,1,0,0,560,507
6,1,1,0,0,560,509
7,1,1,0,0,559,505
8,1,1,0,0,558,509
9,1,1,0,0,555,504
10,1,1,0,0,554,510
11,1,1,0,0,553,510
12,1,1,0,0,551,507
13,1,1,0,0,549,507
14,1,1,0,0,547,504
15,1,1,0,0,547,507
0,1,1,0,0,547,508
1,1,1,0,0,547,507
2,1,1,0,0,547,509
3,1,1,0,0,547,506
4,1,1,0,0,546,507
5,1,1,0,0,544,510
6,1,1,0,0,541,508
7,1,1,0,0,536,511
8,1,1,0,0,532,505
9,1,1,0,0,527,508
10,1,1,0,0,523,511
11,1,1,0,0,519,509
12,1,1,0,0,515,509
13,1,1,0,0,511,505
14,1,1,0,0,509,507
15,1,1,0,0,505,509
0,1,1,0,0,502,509
1,1,1,0,0,498,509
2,1,1,0,0,494,509
3,1,1,0,0,491,508
4,1,1,0,0,488,509
5,1,1,0,0,486,508
6,1,1,0,0,484,512
7,1,1,0,0,482,506
8,1,1,0,0,481,512
9,1,1,0,0,481,511
10,1,1,0,0,480,508
11,1,1,0,0,478,510
12,1,1,0,0,477,506
13,1,1,0,0,476,508
14,1,1,0,0,477,510
15,1,1,0,0,478,510
0,1,1,0,0,478,510
1,1,1,0,0,478,510
2,1,1,0,0,477,509
3,1,1,0,0,476,510
4,1,1,0,0,475,510
5,1,1,0,0,473,510
6,1,1,0,0,471,510
7,1,1,0,0,469,509
8,1,1,0,0,466,509
9,1,1,0,0,464,512
10,1,1,0,0,461,509
11,1,1,0,0,459,512
12,1,1,0,0,458,510
13,1,1,0,0,458,511
14,1,1,0,0,456,511
15,1,1,0,0,456,510
0,1,1,0,0,456,508
1,1,1,0,0,457,510
2,1,1,0,0,458,509
3,1,1,0,0,460,513
4,1,1,0,0,460,512
5,1,1,0,0,461,510
6,1,1,0,0,463,515
7,1,1,0,0,465,512
8,1,1,0,0,468,512
9,1,1,0,0,470,512
10,1,1,0,0,472,508
11,1,1,0,0,475,511
12,1,1,0,0,476,511
13,1,1,0,0,476,511
14,1,1,0,0,477,511
15,1,1,0,0,477,508
0,1,1,0,0,475,510
1,1,1,0,0,472,511
2,1,1,0,0,470,512
3,1,1,0,0,466,512
4,1,1,0,0,463,509
5,1,1,0,0,461,511
6,1,1,0,0,460,515
7,1,1,0,0,460,510
8,1,1,0,0,459,513
9,1,1,0,0,459,507
10,1,1,0,0,460,510
11,1,1,0,0,461,513
12,1,1,0,0,462,511
13,1,1,0,0,462,511
14,1,1,0,0,463,508
15,1,1,0,0,464,510
0,1,1,0,0,465,511
1,1,1,0,0,466,511
2,1,1,0,0,469,514
3,1,1,0,0,472,511
4,1,1,0,0,475,511
5,1,1,0,0,476,512
6,1,1,0,0,478,511
7,1,1,0,0,479,515
8,1,1,0,0,480,509
9,1,1,0,0,481,514
10,1,1,0,0,484,514
11,1,1,0,0,487,510
12,1,1,0,0,488,512
13,1,1,0,0,489,509
14,1,1,0,0,488,511
15,1,1,0,0,486,512
0,1,1,0,0,483,513
1,1,1,0,0,480,512
2,1,1,0,0,478,512
3,1,1,0,0,476,511
4,1,1,0,0,474,513
5,1,1,0,0,473,513
6,1,1,0,0,472,513
7,1,1,0,0,471,513
8,1,1,0,0,471,512
9,1,1,0,0,472,513
10,1,1,0,0,474,512
11,1,1,0,0,475,515
12,1,1,0,0,476,511
13,1,1,0,0,476,516
14,1,1,0,0,476,514
15,1,1,0,0,476,513
0,1,1,0,0,476,513
1,1,1,0,0,478,515
2,1,1,0,0,479,514
3,1,1,0,0,479,515
4,1,1,0,0,480,512
5,1,1,0,0,481,515
6,1,1,0,0,482,511
7,1,1,0,0,483,515
8,1,1,0,0,483,514
9,1,1,0,0,483,514
10,1,1,0,0,485,513
11,1,1,0,0,487,510
12,1,1,0,0,487,512
13,1,1,0,0,489,514
14,1,1,0,0,490,514
15,1,1,0,0,491,514
0,1,1,0,0,493,511
1,1,1,0,0,496,513
2,1,1,0,0,498,514
3,1,1,0,0,501,514
4,1,1,0,0,504,514
5,1,1,0,0,505,510
6,1,1,0,0,506,513
7,1,1,0,0,506,517
8,1,1,0,0,504,512
9,1,1,0,0,500,515
10,1,1,0,0,496,509
11,1,1,0,0,493,512
12,1,1,0,0,489,513
13,1,1,0,0,487,513
14,1,1,0,0,486,513
15,1,1,0,0,486,510
0,1,1,0,0,487,512
1,1,1,0,0,488,513
2,1,1,0,0,491,512
3,1,1,0,0,492,515
4,1,1,0,0,493,510
5,1,1,0,0,495,512
6,1,1,0,0,496,511
7,1,1,0,0,499,514
8,1,1,0,0,500,514
9,1,1,0,0,502,513
10,1,1,0,0,503,512
11,1,1,0,0,503,514
12,1,1,0,0,502,512
13,1,1,0,0,502,512
14,1,1,0,0,501,512
15,1,1,0,0,500,511
0,1,1,0,0,499,512
1,1,1,0,0,498,512
2,1,1,0,0,497,512
3,1,1,0,0,497,511
4,1,1,0,0,498,511
5,1,1,0,0,499,512
6,1,1,0,0,499,512
7,1,1,0,0,499,511
8,1,1,0,0,500,511
9,1,1,0,0,501,510
10,1,1,0,0,502,511
11,1,1,0,0,503,510
12,1,1,0,0,503,510
13,1,1,0,0,504,510
14,1,1,0,0,505,509
15,1,1,0,0,505,511
0,1,1,0,0,505,510
1,1,1,0,0,505,509
2,1,1,0,0,504,506
3,1,1,0,0,503,508
4,1,1,0,0,503,511
5,1,1,0,0,503,510
6,1,1,0,0,503,509
7,1,1,0,0,503,509
8,1,1,0,0,504,508
9,1,1,0,0,505,510
10,1,1,0,0,506,508
11,1,1,0,0,507,507
12,1,1,0,0,508,508
13,1,1,0,0,508,507
14,1,1,0,0,507,508
15,1,1,0,0,507,508
0,1,1,0,0,505,508
1,1,1,0,0,505,508
2,1,1,0,0,504,507
3,1,1,0,0,505,508
4,1,1,0,0,506,507
5,1,1,0,0,508,510
6,1,1,0,0,509,504
7,1,1,0,0,511,507
8,1,1,0,0,512,511
9,1,1,0,0,513,506
10,1,1,0,0,515,510
11,1,1,0,0,515,505
12,1,1,0,0,516,507
13,1,1,0,0,515,509
14,1,1,0,0,514,507
15,1,1,0,0,513,509
0,1,1,0,0,512,505
1,1,1,0,0,512,507
2,1,1,0,0,513,509
3,1,1,0,0,513,509
4,1,1,0,0,512,508
5,1,1,0,0,510,512
6,1,1,0,0,508,509
7,1,1,0,0,508,507
8,1,1,0,0,508,511
9,1,1,0,0,507,507
10,1,1,0,0,506,506
11,1,1,0,0,505,507
12,1,1,0,0,504,509
13,1,1,0,0,504,509
14,1,1,0,0,504,508
15,1,1,0,0,507,505
0,1,1,0,0,509,507
1,1,1,0,0,511,508
2,1,1,0,0,513,508
3,1,1,0,0,515,508
4,1,1,0,0,515,508
5,1,1,0,0,515,507
6,1,1,0,0,515,509
7,1,1,0,0,516,507
8,1,1,0,0,516,511
9,1,1,0,0,515,505
10,1,1,0,0,514,512
11,1,1,0,0,512,511
12,1,1,0,0,511,508
13,1,1,0,0,509,508
14,1,1,0,0,508,505
15,1,1,0,0,507,507
0,1,1,0,0,505,509
1,1,1,0,0,504,508
2,1,1,0,0,504,508
3,1,1,0,0,504,505
4,1,1,0,0,504,508
5,1,1,0,0,504,510
6,1,1,0,0,505,508
7,1,1,0,0,507,508
8,1,1,0,0,508,511
9,1,1,0,0,509,508
10,1,1,0,0,510,510
11,1,1,0,0,511,509
12,1,1,0,0,512,510
13,1,1,0,0,512,506
14,1,1,0,0,512,508
15,1,1,0,0,513,509
0,1,1,0,0,513,510
1,1,1,0,0,512,510
2,1,1,0,0,511,509
3,1,1,0,0,511,508
4,1,1,0,0,510,510
5,1,1,0,0,511,510
6,1,1,0,0,511,509
7,1,1,0,0,512,510
8,1,1,0,0,513,510
9,1,1,0,0,514,508
10,1,1,0,0,515,512
11,1,1,0,0,516,509
12,1,1,0,0,516,506
13,1,1,0,0,515,508
14,1,1,0,0,512,509
15,1,1,0,0,512,509
0,1,1,0,0,510,509
1,1,1,0,0,507,509
2,1,1,0,0,504,508
3,1,1,0,0,502,508
4,1,1,0,0,501,511
5,1,1,0,0,501,509
6,1,1,0,0,501,511
7,1,1,0,0,503,508
8,1,1,0,0,505,510
9,1,1,0,0,510,509
10,1,1,0,0,512,509
11,1,1,0,0,513,506
12,1,1,0,0,515,507
13,1,1,0,0,516,509
14,1,1,0,0,516,509
15,1,1,0,0,516,509
0,1,1,0,0,514,506
1,1,1,0,0,512,508
2,1,1,0,0,509,509
3,1,1,0,0,507,509
4,1,1,0,0,507,510
5,1,1,0,0,507,506
6,1,1,0,0,506,508
7,1,1,0,0,506,512
8,1,1,0,0,505,507
9,1,1,0,0,504,511
10,1,1,0,0,503,505
11,1,1,0,0,502,507
12,1,1,0,0,502,509
13,1,1,0,0,502,509
14,1,1,0,0,502,508
15,1,1,0,0,502,506
0,1,1,0,0,501,508
1,1,1,0,0,501,509
2,1,1,0,0,503,508
3,1,1,0,0,504,511
4,1,1,0,0,506,507
5,1,1,0,0,508,508
6,1,1,0,0,509,507
7,1,1,0,0,511,510
8,1,1,0,0,512,510
9,1,1,0,0,512,509
10,1,1,0,0,512,508
11,1,1,0,0,511,508
12,1,1,0,0,511,509
13,1,1,0,0,512,509
14,1,1,0,0,513,506
15,1,1,0,0,513,508
0,1,1,0,0,513,509
1,1,1,0,0,514,509
2,1,1,0,0,516,508
3,1,1,0,0,518,508
4,1,1,0,0,520,509
5,1,1,0,0,522,510
6,1,1,0,0,524,508
7,1,1,0,0,525,513
8,1,1,0,0,526,505
9,1,1,0,0,527,508
10,1,1,0,0,526,512
11,1,1,0,0,526,509
12,1,1,0,0,525,508
13,1,1,0,0,525,506
14,1,1,0,0,526,508
15,1,1,0,0,527,509
0,1,1,0,0,526,510
1,1,1,0,0,527,510
2,1,1,0,0,527,509
3,1,1,0,0,527,508
4,1,1,0,0,527,509
5,1,1,0,0,528,508
6,1,1,0,0,528,512
7,1,1,0,0,528,506
8,1,1,0,0,527,512
9,1,1,0,0,524,512
10,1,1,0,0,521,507
11,1,1,0,0,519,510
12,1,1,0,0,519,506
13,1,1,0,0,519,508
14,1,1,0,0,521,509
15,1,1,0,0,522,509
0,1,1,0,0,524,509
1,1,1,0,0,524,509
2,1,1,0,0,523,508
3,1,1,0,0,522,510
4,1,1,0,0,520,510
5,1,1,0,0,519,510
6,1,1,0,0,516,510
7,1,1,0,0,515,508
8,1,1,0,0,512,508
9,1,1,0,0,510,513
10,1,1,0,0,506,508
11,1,1,0,0,504,511
12,1,1,0,0,503,509
13,1,1,0,0,502,510
14,1,1,0,0,503,511
15,1,1,0,0,503,510
0,1,1,0,0,503,507
1,1,1,0,0,504,509
2,1,1,0,0,506,508
3,1,1,0,0,508,512
4,1,1,0,0,509,511
5,1,1,0,0,510,509
6,1,1,0,0,511,514
7,1,1,0,0,511,511
8,1,1,0,0,511,510
9,1,1,0,0,511,511
10,1,1,0,0,510,508
11,1,1,0,0,508,510
12,1,1,0,0,507,509
13,1,1,0,0,506,509
14,1,1,0,0,506,510
15,1,1,0,0,507,507
0,1,1,0,0,507,508
1,1,1,0,0,507,510
2,1,1,0,0,508,510
3,1,1,0,0,508,510
4,1,1,0,0,508,507
5,1,1,0,0,507,509
6,1,1,0,0,507,512
7,1,1,0,0,505,508
8,1,1,0,0,505,511
9,1,1,0,0,504,506
10,1,1,0,0,504,508
11,1,1,0,0,504,511
12,1,1,0,0,505,509
13,1,1,0,0,506,509
14,1,1,0,0,508,506
15,1,1,0,0,510,507
0,1,1,0,0,510,509
1,1,1,0,0,511,509
2,1,1,0,0,512,510
3,1,1,0,0,511,509
4,1,1,0,0,510,508
5,1,1,0,0,508,510
6,1,1,0,0,507,507
7,1,1,0,0,504,512
8,1,1,0,0,503,506
9,1,1,0,0,502,511
10,1,1,0,0,502,511
11,1,1,0,0,503,507
12,1,1,0,0,503,510
13,1,1,0,0,504,506
14,1,1,0,0,507,508
15,1,1,0,0,508,509
0,1,1,0,0,510,509
1,1,1,0,0,510,509
2,1,1,0,0,509,509
3,1,1,0,0,507,508
4,1,1,0,0,505,509
5,1,1,0,0,502,510
6,1,1,0,0,499,509
7,1,1,0,0,498,510
8,1,1,0,0,498,508
9,1,1,0,0,498,508
10,1,1,0,0,498,512
11,1,1,0,0,499,510
12,1,1,0,0,501,507
13,1,1,0,0,503,508
14,1,1,0,0,504,510
15,1,1,0,0,505,510
0,1,1,0,0,504,510
1,1,1,0,0,504,510
2,1,1,0,0,505,509
3,1,1,0,0,505,508
4,1,1,0,0,504,512
5,1,1,0,0,504,510
6,1,1,0,0,503,512
7,1,1,0,0,502,509
8,1,1,0,0,501,511
9,1,1,0,0,501,510
10,1,1,0,0,501,510
11,1,1,0,0,501,506
12,1,1,0,0,501,509
13,1,1,0,0,500,510
14,1,1,0,0,502,510
15,1,1,0,0,504,511
0,1,1,0,0,505,507
1,1,1,0,0,507,509
2,1,1,0,0,510,510
3,1,1,0,0,513,510
4,1,1,0,0,517,511
5,1,1,0,0,522,507
6,1,1,0,0,528,509
7,1,1,0,0,536,513
8,1,1,0,0,544,509
9,1,1,0,0,550,512
10,1,1,0,0,554,506
11,1,1,0,0,559,508
12,1,1,0,0,563,510
13,1,1,0,0,566,510
14,1,1,0,0,568,510
15,1,1,0,0,568,507
0,1,1,0,0,568,509
1,1,1,0,0,569,510
2,1,1,0,0,572,509
3,1,1,0,0,574,512
4,1,1,0,0,577,508
5,1,1,0,0,579,509
6,1,1,0,0,582,508
7,1,1,0,0,583,512
8,1,1,0,0,583,511
9,1,1,0,0,582,508
10,1,1,0,0,579,510
11,1,1,0,0,576,511
12,1,1,0,0,570,509
13,1,1,0,0,562,510
14,1,1,0,0,555,509
15,1,1,0,0,547,508
0,1,1,0,0,539,510
1,1,1,0,0,531,510
2,1,1,0,0,524,510
3,1,1,0,0,518,509
4,1,1,0,0,516,508
5,1,1,0,0,510,508
6,1,1,0,0,497,513
7,1,1,0,0,477,508
8,1,1,0,0,450,511
9,1,1,0,0,417,508
10,1,1,0,0,381,509
11,1,1,0,0,344,509
12,1,1,0,0,314,509
13,1,1,0,0,294,506
14,1,1,0,0,280,508
15,1,1,0,0,271,509
0,1,1,0,0,265,510
1,1,1,0,0,256,510
2,1,1,0,0,247,509
3,1,1,0,0,238,508
4,1,1,0,0,234,509
5,1,1,0,0,236,509
6,1,1,0,0,244,509
7,1,1,0,0,255,511
8,1,1,0,0,267,509
9,1,1,0,0,282,507
10,1,1,0,0,301,511
11,1,1,0,0,321,508
12,1,1,0,0,345,507
13,1,1,0,0,369,508
14,1,1,0,0,392,509
15,1,1,0,0,413,509
0,1,1,0,0,431,509
1,1,1,0,0,446,506
2,1,1,0,0,461,507
3,1,1,0,0,474,509
4,1,1,0,0,486,508
5,1,1,0,0,495,511
6,1,1,0,0,502,509
7,1,1,0,0,509,508
8,1,1,0,0,516,509
9,1,1,0,0,522,510
10,1,1,0,0,527,508
11,1,1,0,0,532,507
12,1,1,0,0,537,507
13,1,1,0,0,542,508
14,1,1,0,0,544,508
15,1,1,0,0,547,508
0,1,1,0,0,548,508
1,1,1,0,0,550,507
2,1,1,0,0,552,509
3,1,1,0,0,553,509
4,1,1,0,0,555,509
5,1,1,0,0,555,508
6,1,1,0,0,556,508
7,1,1,0,0,556,509
8,1,1,0,0,555,508
9,1,1,0,0,555,507
10,1,1,0,0,554,507
11,1,1,0,0,554,506
12,1,1,0,0,554,506
13,1,1,0,0,555,505
14,1,1,0,0,556,508
15,1,1,0,0,557,507
0,1,1,0,0,559,505
1,1,1,0,0,561,507
2,1,1,0,0,564,507
3,1,1,0,0,566,508
4,1,1,0,0,565,507
5,1,1,0,0,563,506
6,1,1,0,0,562,508
7,1,1,0,0,559,507
8,1,1,0,0,557,506
9,1,1,0,0,555,505
10,1,1,0,0,552,505
11,1,1,0,0,551,507
12,1,1,0,0,549,505
13,1,1,0,0,548,505
14,1,1,0,0,547,505
15,1,1,0,0,548,505
0,1,1,0,0,547,505
1,1,1,0,0,547,507
2,1,1,0,0,548,507
3,1,1,0,0,550,506
4,1,1,0,0,551,505
5,1,1,0,0,551,507
6,1,1,0,0,551,505
7,1,1,0,0,550,509
8,1,1,0,0,550,507
9,1,1,0,0,551,507
10,1,1,0,0,551,508
11,1,1,0,0,551,507
12,1,1,0,0,551,507
13,1,1,0,0,551,507
14,1,1,0,0,552,506
15,1,1,0,0,552,507
0,1,1,0,0,553,508
1,1,1,0,0,553,508
2,1,1,0,0,554,507
3,1,1,0,0,555,506
4,1,1,0,0,555,508
5,1,1,0,0,554,509
6,1,1,0,0,553,508
7,1,1,0,0,553,506
8,1,1,0,0,552,510
9,1,1,0,0,552,508
10,1,1,0,0,551,507
11,1,1,0,0,551,511
12,1,1,0,0,551,506
13,1,1,0,0,551,512
14,1,1,0,0,552,510
15,1,1,0,0,553,508
0,1,1,0,0,553,512
1,1,1,0,0,553,507
2,1,1,0,0,553,512
3,1,1,0,0,554,510
4,1,1,0,0,555,508
5,1,1,0,0,556,513
6,1,1,0,0,557,508
7,1,1,0,0,556,514
8,1,1,0,0,557,512
9,1,1,0,0,557,509
10,1,1,0,0,556,513
11,1,1,0,0,554,507
12,1,1,0,0,552,513
13,1,1,0,0,552,511
14,1,1,0,0,551,511
15,1,1,0,0,552,511
0,1,1,0,0,553,511
1,1,1,0,0,553,510
2,1,1,0,0,553,511
3,1,1,0,0,553,512
4,1,1,0,0,553,512
5,1,1,0,0,551,511
6,1,1,0,0,550,511
7,1,1,0,0,547,513
8,1,1,0,0,546,511
9,1,1,0,0,545,510
10,1,1,0,0,545,509
11,1,1,0,0,544,508
12,1,1,0,0,543,508
13,1,1,0,0,544,509
14,1,1,0,0,544,509
15,1,1,0,0,544,509
0,1,1,0,0,545,508
1,1,1,0,0,545,510
2,1,1,0,0,546,510
3,1,1,0,0,547,510
4,1,1,0,0,548,508
5,1,1,0,0,551,509
6,1,1,0,0,553,511
7,1,1,0,0,556,511
8,1,1,0,0,558,511
9,1,1,0,0,558,509
10,1,1,0,0,559,509
11,1,1,0,0,558,511
12,1,1,0,0,557,509
13,1,1,0,0,555,509
14,1,1,0,0,553,509
15,1,1,0,0,552,507
0,1,1,0,0,550,509
1,1,1,0,0,549,510
2,1,1,0,0,550,508
3,1,1,0,0,550,510
4,1,1,0,0,551,508
5,1,1,0,0,554,508
6,1,1,0,0,557,511
7,1,1,0,0,560,508
8,1,1,0,0,563,510
9,1,1,0,0,564,508
10,1,1,0,0,563,507
11,1,1,0,0,562,510
12,1,1,0,0,560,509
13,1,1,0,0,557,512
14,1,1,0,0,557,508
15,1,1,0,0,557,510
0,1,1,0,0,556,510
1,1,1,0,0,555,510
2,1,1,0,0,555,507
3,1,1,0,0,556,509
4,1,1,0,0,556,508
5,1,1,0,0,558,512
6,1,1,0,0,559,511
7,1,1,0,0,559,508
8,1,1,0,0,560,513
9,1,1,0,0,560,511
10,1,1,0,0,561,510
11,1,1,0,0,561,511
12,1,1,0,0,562,508
13,1,1,0,0,562,510
14,1,1,0,0,561,511
15,1,1,0,0,561,510
0,1,1,0,0,562,511
1,1,1,0,0,563,507
2,1,1,0,0,563,510
3,1,1,0,0,563,511
4,1,1,0,0,563,511
5,1,1,0,0,562,511
6,1,1,0,0,562,512
7,1,1,0,0,561,509
8,1,1,0,0,561,510
9,1,1,0,0,560,511
10,1,1,0,0,559,509
11,1,1,0,0,558,506
12,1,1,0,0,559,508
13,1,1,0,0,559,509
14,1,1,0,0,560,510
15,1,1,0,0,560,510
0,1,1,0,0,561,509
1,1,1,0,0,561,508
2,1,1,0,0,562,509
3,1,1,0,0,563,510
4,1,1,0,0,563,509
5,1,1,0,0,564,513
6,1,1,0,0,564,510
7,1,1,0,0,562,508
8,1,1,0,0,560,511
9,1,1,0,0,559,508
10,1,1,0,0,558,507
11,1,1,0,0,556,508
12,1,1,0,0,554,509
13,1,1,0,0,553,509
14,1,1,0,0,552,509
15,1,1,0,0,551,505
0,1,1,0,0,550,508
1,1,1,0,0,548,508
2,1,1,0,0,548,509
3,1,1,0,0,547,510
4,1,1,0,0,545,509
5,1,1,0,0,545,508
6,1,1,0,0,543,509
7,1,1,0,0,543,508
8,1,1,0,0,541,512
9,1,1,0,0,540,506
10,1,1,0,0,539,512
11,1,1,0,0,537,511
12,1,1,0,0,535,508
13,1,1,0,0,532,509
14,1,1,0,0,529,506
15,1,1,0,0,527,508
0,1,1,0,0,523,509
1,1,1,0,0,519,509
2,1,1,0,0,518,510
3,1,1,0,0,517,507
4,1,1,0,0,515,508
5,1,1,0,0,514,510
6,1,1,0,0,512,508
7,1,1,0,0,509,511
8,1,1,0,0,506,506
9,1,1,0,0,505,509
10,1,1,0,0,504,509
11,1,1,0,0,502,509
12,1,1,0,0,499,509
13,1,1,0,0,494,506
14,1,1,0,0,490,508
15,1,1,0,0,487,509
0,1,1,0,0,482,510
1,1,1,0,0,479,510
2,1,1,0,0,477,510
3,1,1,0,0,476,508
4,1,1,0,0,475,510
5,1,1,0,0,475,511
6,1,1,0,0,475,511
7,1,1,0,0,474,507
8,1,1,0,0,474,510
9,1,1,0,0,474,513
10,1,1,0,0,474,509
11,1,1,0,0,474,512
12,1,1,0,0,473,508
13,1,1,0,0,472,510
14,1,1,0,0,471,511
15,1,1,0,0,471,511
0,1,1,0,0,471,511
1,1,1,0,0,471,508
2,1,1,0,0,470,510
3,1,1,0,0,469,513
4,1,1,0,0,467,511
5,1,1,0,0,464,511
6,1,1,0,0,462,513
7,1,1,0,0,460,511
8,1,1,0,0,456,513
9,1,1,0,0,455,512
10,1,1,0,0,455,511
11,1,1,0,0,455,508
12,1,1,0,0,455,510
13,1,1,0,0,456,512
14,1,1,0,0,456,512
15,1,1,0,0,457,512
0,1,1,0,0,459,511
1,1,1,0,0,460,510
2,1,1,0,0,461,512
3,1,1,0,0,462,512
4,1,1,0,0,463,512
5,1,1,0,0,464,511
6,1,1,0,0,464,513
7,1,1,0,0,465,510
8,1,1,0,0,466,515
9,1,1,0,0,467,512
10,1,1,0,0,467,508
11,1,1,0,0,466,511
12,1,1,0,0,466,512
13,1,1,0,0,466,511
14,1,1,0,0,466,512
15,1,1,0,0,467,512
0,1,1,0,0,467,510
1,1,1,0,0,467,512
2,1,1,0,0,468,512
3,1,1,0,0,469,512
4,1,1,0,0,470,512
5,1,1,0,0,470,511
6,1,1,0,0,470,511
7,1,1,0,0,470,514
8,1,1,0,0,470,512
9,1,1,0,0,468,513
10,1,1,0,0,468,512
11,1,1,0,0,467,513
12,1,1,0,0,467,512
13,1,1,0,0,468,512
14,1,1,0,0,469,509
15,1,1,0,0,469,511
0,1,1,0,0,469,512
1,1,1,0,0,470,513
2,1,1,0,0,471,513
3,1,1,0,0,472,510
4,1,1,0,0,473,512
5,1,1,0,0,475,513
6,1,1,0,0,476,513
7,1,1,0,0,478,514
8,1,1,0,0,480,510
9,1,1,0,0,486,512
10,1,1,0,0,491,516
11,1,1,0,0,494,512
12,1,1,0,0,495,515
13,1,1,0,0,497,510
14,1,1,0,0,498,512
15,1,1,0,0,497,514
0,1,1,0,0,493,513
1,1,1,0,0,488,514
2,1,1,0,0,483,514
3,1,1,0,0,479,513
4,1,1,0,0,474,512
5,1,1,0,0,469,515
6,1,1,0,0,466,514
7,1,1,0,0,464,516
8,1,1,0,0,463,513
9,1,1,0,0,463,515
10,1,1,0,0,465,514
11,1,1,0,0,466,514
12,1,1,0,0,468,511
13,1,1,0,0,470,512
14,1,1,0,0,473,514
15,1,1,0,0,475,514
0,1,1,0,0,477,514
1,1,1,0,0,477,511
2,1,1,0,0,477,513
3,1,1,0,0,477,514
4,1,1,0,0,478,515
5,1,1,0,0,478,515
6,1,1,0,0,478,512
7,1,1,0,0,478,513
8,1,1,0,0,478,518
9,1,1,0,0,479,512
10,1,1,0,0,480,516
11,1,1,0,0,481,512
12,1,1,0,0,483,512
13,1,1,0,0,484,514
14,1,1,0,0,485,513
15,1,1,0,0,486,514
0,1,1,0,0,487,511
1,1,1,0,0,489,513
2,1,1,0,0,491,513
3,1,1,0,0,493,516
4,1,1,0,0,495,515
5,1,1,0,0,495,512
6,1,1,0,0,496,517
7,1,1,0,0,496,515
8,1,1,0,0,497,513
9,1,1,0,0,497,515
10,1,1,0,0,496,511
11,1,1,0,0,496,513
12,1,1,0,0,495,513
13,1,1,0,0,495,513
14,1,1,0,0,495,513
15,1,1,0,0,494,511
0,1,1,0,0,494,512
1,1,1,0,0,495,513
2,1,1,0,0,497,513
3,1,1,0,0,499,514
4,1,1,0,0,501,510
5,1,1,0,0,503,512
6,1,1,0,0,504,516
7,1,1,0,0,504,511
8,1,1,0,0,505,514
9,1,1,0,0,504,509
10,1,1,0,0,504,511
11,1,1,0,0,503,514
12,1,1,0,0,502,512
13,1,1,0,0,501,512
14,1,1,0,0,502,508
15,1,1,0,0,502,510
0,1,1,0,0,502,511
1,1,1,0,0,502,511
2,1,1,0,0,504,512
3,1,1,0,0,504,511
4,1,1,0,0,505,510
5,1,1,0,0,505,512
6,1,1,0,0,507,512
7,1,1,0,0,506,512
8,1,1,0,0,506,510
9,1,1,0,0,506,510
10,1,1,0,0,505,511
11,1,1,0,0,505,509
12,1,1,0,0,505,510
13,1,1,0,0,504,509
14,1,1,0,0,504,508
15,1,1,0,0,503,510
0,1,1,0,0,504,509
1,1,1,0,0,504,512
2,1,1,0,0,504,510
3,1,1,0,0,504,509
4,1,1,0,0,503,511
5,1,1,0,0,502,511
6,1,1,0,0,503,510
7,1,1,0,0,503,509
8,1,1,0,0,503,508
9,1,1,0,0,504,510
10,1,1,0,0,506,508
11,1,1,0,0,507,508
12,1,1,0,0,508,508
13,1,1,0,0,510,507
14,1,1,0,0,510,508
15,1,1,0,0,510,508
0,1,1,0,0,511,509
1,1,1,0,0,512,508
2,1,1,0,0,512,508
3,1,1,0,0,512,510
4,1,1,0,0,512,510
5,1,1,0,0,513,510
6,1,1,0,0,515,507
7,1,1,0,0,516,508
8,1,1,0,0,517,510
9,1,1,0,0,517,506
10,1,1,0,0,517,509
11,1,1,0,0,516,508
12,1,1,0,0,514,507
13,1,1,0,0,513,508
14,1,1,0,0,512,509
15,1,1,0,0,512,509
0,1,1,0,0,511,508
1,1,1,0,0,512,508
2,1,1,0,0,512,509
3,1,1,0,0,512,510
4,1,1,0,0,513,510
5,1,1,0,0,513,509
6,1,1,0,0,512,509
7,1,1,0,0,510,511
8,1,1,0,0,510,508
9,1,1,0,0,509,508
10,1,1,0,0,508,507
11,1,1,0,0,508,507
12,1,1,0,0,507,507
13,1,1,0,0,505,508
14,1,1,0,0,505,508
15,1,1,0,0,505,507
0,1,1,0,0,506,506
1,1,1,0,0,507,508
2,1,1,0,0,508,508
3,1,1,0,0,510,509
4,1,1,0,0,512,506
5,1,1,0,0,514,508
6,1,1,0,0,515,510
7,1,1,0,0,516,509
8,1,1,0,0,516,507
9,1,1,0,0,516,509
10,1,1,0,0,516,507
11,1,1,0,0,515,506
12,1,1,0,0,514,510
13,1,1,0,0,512,509
14,1,1,0,0,510,510
15,1,1,0,0,508,507
0,1,1,0,0,508,507
1,1,1,0,0,508,511
2,1,1,0,0,508,509
3,1,1,0,0,507,511
4,1,1,0,0,508,508
5,1,1,0,0,509,508
6,1,1,0,0,510,512
7,1,1,0,0,510,510
8,1,1,0,0,510,512
9,1,1,0,0,510,510
10,1,1,0,0,510,508
11,1,1,0,0,509,512
12,1,1,0,0,509,510
13,1,1,0,0,508,512
14,1,1,0,0,508,510
15,1,1,0,0,508,511
0,1,1,0,0,508,511
1,1,1,0,0,508,511
2,1,1,0,0,508,508
3,1,1,0,0,508,510
4,1,1,0,0,508,509
5,1,1,0,0,509,513
6,1,1,0,0,510,512
7,1,1,0,0,511,510
8,1,1,0,0,512,514
9,1,1,0,0,512,511
10,1,1,0,0,513,511
11,1,1,0,0,513,512
12,1,1,0,0,514,509
13,1,1,0,0,515,510
14,1,1,0,0,514,512
15,1,1,0,0,515,512
0,1,1,0,0,514,515
1,1,1,0,0,513,509
2,1,1,0,0,513,511
3,1,1,0,0,512,512
4,1,1,0,0,512,511
5,1,1,0,0,511,512
6,1,1,0,0,509,513
7,1,1,0,0,508,511
8,1,1,0,0,508,512
9,1,1,0,0,508,512
10,1,1,0,0,509,511
11,1,1,0,0,510,508
12,1,1,0,0,510,510
13,1,1,0,0,512,511
14,1,1,0,0,513,512
15,1,1,0,0,515,511
0,1,1,0,0,516,511
1,1,1,0,0,518,509
2,1,1,0,0,519,511
3,1,1,0,0,521,512
4,1,1,0,0,521,510
5,1,1,0,0,520,513
6,1,1,0,0,519,512
7,1,1,0,0,517,509
8,1,1,0,0,516,513
9,1,1,0,0,516,509
10,1,1,0,0,515,509
11,1,1,0,0,515,509
12,1,1,0,0,513,511
13,1,1,0,0,510,510
14,1,1,0,0,508,511
15,1,1,0,0,506,508
0,1,1,0,0,504,509
1,1,1,0,0,502,511
2,1,1,0,0,500,510
3,1,1,0,0,500,511
4,1,1,0,0,500,510
5,1,1,0,0,500,509
6,1,1,0,0,500,510
7,1,1,0,0,500,509
8,1,1,0,0,500,514
9,1,1,0,0,500,508
10,1,1,0,0,499,513
11,1,1,0,0,498,513
12,1,1,0,0,497,510
13,1,1,0,0,497,511
14,1,1,0,0,496,508
15,1,1,0,0,497,510
0,1,1,0,0,497,511
1,1,1,0,0,496,511
2,1,1,0,0,496,512
3,1,1,0,0,496,509
4,1,1,0,0,496,510
5,1,1,0,0,498,512
6,1,1,0,0,499,511
7,1,1,0,0,500,511
8,1,1,0,0,501,513
9,1,1,0,0,501,510
10,1,1,0,0,503,512
11,1,1,0,0,504,511
12,1,1,0,0,505,512
13,1,1,0,0,505,511
14,1,1,0,0,505,510
15,1,1,0,0,506,512
0,1,1,0,0,507,512
1,1,1,0,0,508,511
2,1,1,0,0,509,514
3,1,1,0,0,509,511
4,1,1,0,0,511,512
5,1,1,0,0,513,510
6,1,1,0,0,516,514
7,1,1,0,0,519,509
8,1,1,0,0,521,511
9,1,1,0,0,523,514
10,1,1,0,0,525,511
11,1,1,0,0,526,511
12,1,1,0,0,527,508
13,1,1,0,0,528,510
14,1,1,0,0,528,511
15,1,1,0,0,527,511
0,1,1,0,0,526,511
1,1,1,0,0,525,510
2,1,1,0,0,525,510
3,1,1,0,0,524,511
4,1,1,0,0,524,510
5,1,1,0,0,525,513
6,1,1,0,0,526,509
7,1,1,0,0,526,514
8,1,1,0,0,527,512
9,1,1,0,0,527,508
10,1,1,0,0,528,511
11,1,1,0,0,529,508
12,1,1,0,0,529,509
13,1,1,0,0,530,511
14,1,1,0,0,529,510
15,1,1,0,0,529,510
0,1,1,0,0,528,509
1,1,1,0,0,528,509
2,1,1,0,0,529,511
3,1,1,0,0,529,511
4,1,1,0,0,528,512
5,1,1,0,0,526,510
6,1,1,0,0,523,509
7,1,1,0,0,519,509
8,1,1,0,0,516,514
9,1,1,0,0,511,510
10,1,1,0,0,508,512
11,1,1,0,0,505,510
12,1,1,0,0,502,510
13,1,1,0,0,499,511
14,1,1,0,0,498,511
15,1,1,0,0,497,508
0,1,1,0,0,497,509
1,1,1,0,0,497,511
2,1,1,0,0,499,511
3,1,1,0,0,499,510
4,1,1,0,0,500,510
5,1,1,0,0,502,510
6,1,1,0,0,503,509
7,1,1,0,0,504,512
8,1,1,0,0,505,509
9,1,1,0,0,506,508
10,1,1,0,0,506,509
11,1,1,0,0,506,510
12,1,1,0,0,508,510
13,1,1,0,0,510,511
14,1,1,0,0,512,508
15,1,1,0,0,513,509
0,1,1,0,0,514,510
1,1,1,0,0,514,510
2,1,1,0,0,513,511
3,1,1,0,0,512,510
4,1,1,0,0,510,509
5,1,1,0,0,508,511
6,1,1,0,0,507,509
7,1,1,0,0,506,513
8,1,1,0,0,506,508
9,1,1,0,0,507,513
10,1,1,0,0,505,513
11,1,1,0,0,504,510
12,1,1,0,0,502,511
13,1,1,0,0,500,508
14,1,1,0,0,499,509
15,1,1,0,0,498,511
0,1,1,0,0,498,510
1,1,1,0,0,497,510
2,1,1,0,0,497,508
3,1,1,0,0,497,509
4,1,1,0,0,498,512
5,1,1,0,0,499,511
6,1,1,0,0,499,510
7,1,1,0,0,500,512
8,1,1,0,0,502,510
9,1,1,0,0,503,511
10,1,1,0,0,504,511
11,1,1,0,0,504,511
12,1,1,0,0,505,508
13,1,1,0,0,506,509
14,1,1,0,0,507,510
15,1,1,0,0,508,511
0,1,1,0,0,508,511
1,1,1,0,0,508,510
2,1,1,0,0,508,509
3,1,1,0,0,508,511
4,1,1,0,0,508,511
5,1,1,0,0,508,510
6,1,1,0,0,508,514
7,1,1,0,0,508,511
8,1,1,0,0,507,508
9,1,1,0,0,506,512
10,1,1,0,0,507,511
11,1,1,0,0,506,508
12,1,1,0,0,506,508
13,1,1,0,0,506,509
14,1,1,0,0,506,509
15,1,1,0,0,507,510
0,1,1,0,0,508,507
1,1,1,0,0,509,508
2,1,1,0,0,510,508
3,1,1,0,0,510,511
4,1,1,0,0,512,510
5,1,1,0,0,515,508
6,1,1,0,0,518,512
7,1,1,0,0,519,510
8,1,1,0,0,521,510
9,1,1,0,0,521,510
10,1,1,0,0,522,507
11,1,1,0,0,522,510
12,1,1,0,0,521,509
13,1,1,0,0,521,509
14,1,1,0,0,519,510
15,1,1,0,0,518,507
0,1,1,0,0,517,508
1,1,1,0,0,517,509
2,1,1,0,0,516,510
3,1,1,0,0,516,510
4,1,1,0,0,519,507
5,1,1,0,0,525,508
6,1,1,0,0,530,512
7,1,1,0,0,537,508
8,1,1,0,0,544,511
9,1,1,0,0,551,506
10,1,1,0,0,559,508
11,1,1,0,0,564,509
12,1,1,0,0,568,509
13,1,1,0,0,571,509
14,1,1,0,0,572,507
15,1,1,0,0,571,507
0,1,1,0,0,571,509
1,1,1,0,0,573,509
2,1,1,0,0,575,510
3,1,1,0,0,581,508
4,1,1,0,0,586,508
5,1,1,0,0,590,509
6,1,1,0,0,592,508
7,1,1,0,0,592,511
8,1,1,0,0,591,506
9,1,1,0,0,587,511
10,1,1,0,0,581,511
11,1,1,0,0,575,508
12,1,1,0,0,564,510
13,1,1,0,0,555,507
14,1,1,0,0,545,507
15,1,1,0,0,536,509
0,1,1,0,0,528,509
1,1,1,0,0,520,509
2,1,1,0,0,512,508
3,1,1,0,0,508,507
4,1,1,0,0,502,507
5,1,1,0,0,490,511
6,1,1,0,0,472,510
7,1,1,0,0,445,507
8,1,1,0,0,414,508
9,1,1,0,0,380,509
10,1,1,0,0,345,508
11,1,1,0,0,312,511
12,1,1,0,0,290,507
13,1,1,0,0,277,508
14,1,1,0,0,270,510
15,1,1,0,0,265,510
0,1,1,0,0,260,510
1,1,1,0,0,252,508
2,1,1,0,0,242,508
3,1,1,0,0,236,511
4,1,1,0,0,237,510
5,1,1,0,0,243,510
6,1,1,0,0,253,512
7,1,1,0,0,265,510
8,1,1,0,0,279,511
9,1,1,0,0,295,510
10,1,1,0,0,314,510
11,1,1,0,0,334,507
12,1,1,0,0,359,508
13,1,1,0,0,384,509
14,1,1,0,0,407,510
15,1,1,0,0,429,511
0,1,1,0,0,448,509
1,1,1,0,0,467,508
2,1,1,0,0,484,510
3,1,1,0,0,497,510
4,1,1,0,0,509,510
5,1,1,0,0,518,508
6,1,1,0,0,527,510
7,1,1,0,0,532,511
8,1,1,0,0,536,509
9,1,1,0,0,538,509
10,1,1,0,0,540,507
11,1,1,0,0,541,507
12,1,1,0,0,541,508
13,1,1,0,0,540,508
14,1,1,0,0,542,508
15,1,1,0,0,543,508
0,1,1,0,0,544,507
1,1,1,0,0,545,509
2,1,1,0,0,546,508
3,1,1,0,0,547,509
4,1,1,0,0,548,508
5,1,1,0,0,550,507
6,1,1,0,0,551,511
7,1,1,0,0,551,507
8,1,1,0,0,552,511
9,1,1,0,0,553,508
10,1,1,0,0,554,508
11,1,1,0,0,554,509
12,1,1,0,0,554,508
13,1,1,0,0,554,508
14,1,1,0,0,554,508
15,1,1,0,0,555,506
0,1,1,0,0,555,508
1,1,1,0,0,555,508
2,1,1,0,0,556,509
3,1,1,0,0,558,508
4,1,1,0,0,559,507
5,1,1,0,0,559,509
6,1,1,0,0,561,509
7,1,1,0,0,562,508
8,1,1,0,0,563,507
9,1,1,0,0,564,507
10,1,1,0,0,565,509
11,1,1,0,0,566,507
12,1,1,0,0,567,508
13,1,1,0,0,567,507
14,1,1,0,0,566,507
15,1,1,0,0,566,508
0,1,1,0,0,565,508
1,1,1,0,0,563,510
2,1,1,0,0,562,507
3,1,1,0,0,562,507
4,1,1,0,0,562,509
5,1,1,0,0,562,509
6,1,1,0,0,562,509
7,1,1,0,0,562,507
8,1,1,0,0,563,508
9,1,1,0,0,564,505
10,1,1,0,0,566,510
11,1,1,0,0,568,508
12,1,1,0,0,568,507
13,1,1,0,0,568,507
14,1,1,0,0,569,508
15,1,1,0,0,569,508
0,1,1,0,0,569,509
1,1,1,0,0,568,508
2,1,1,0,0,568,507
3,1,1,0,0,567,509
4,1,1,0,0,566,509
5,1,1,0,0,566,510
6,1,1,0,0,565,508
7,1,1,0,0,565,508
8,1,1,0,0,565,509
9,1,1,0,0,564,508
10,1,1,0,0,563,507
11,1,1,0,0,563,506
12,1,1,0,0,563,505
13,1,1,0,0,564,505
14,1,1,0,0,564,509
15,1,1,0,0,564,507
0,1,1,0,0,565,509
1,1,1,0,0,565,508
2,1,1,0,0,564,507
3,1,1,0,0,564,510
4,1,1,0,0,562,508
5,1,1,0,0,562,511
6,1,1,0,0,562,508
7,1,1,0,0,562,508
8,1,1,0,0,561,513
9,1,1,0,0,560,508
10,1,1,0,0,560,511
11,1,1,0,0,559,510
12,1,1,0,0,557,508
13,1,1,0,0,554,511
14,1,1,0,0,551,510
15,1,1,0,0,548,512
0,1,1,0,0,547,509
1,1,1,0,0,545,509
2,1,1,0,0,546,513
3,1,1,0,0,545,510
4,1,1,0,0,543,512
5,1,1,0,0,543,511
6,1,1,0,0,543,510
7,1,1,0,0,542,513
8,1,1,0,0,541,511
9,1,1,0,0,541,513
10,1,1,0,0,541,511
11,1,1,0,0,541,512
12,1,1,0,0,541,512
13,1,1,0,0,540,512
14,1,1,0,0,541,509
15,1,1,0,0,542,511
0,1,1,0,0,542,512
1,1,1,0,0,542,513
2,1,1,0,0,542,511
3,1,1,0,0,542,512
4,1,1,0,0,543,512
5,1,1,0,0,544,512
6,1,1,0,0,546,511
7,1,1,0,0,547,513
8,1,1,0,0,549,510
9,1,1,0,0,551,511
10,1,1,0,0,551,514
11,1,1,0,0,551,511
12,1,1,0,0,552,512
13,1,1,0,0,552,511
14,1,1,0,0,552,510
15,1,1,0,0,552,512
0,1,1,0,0,551,512
1,1,1,0,0,551,513
2,1,1,0,0,551,510
3,1,1,0,0,551,511
4,1,1,0,0,551,513
5,1,1,0,0,551,511
6,1,1,0,0,553,514
7,1,1,0,0,554,508
8,1,1,0,0,555,511
9,1,1,0,0,556,513
10,1,1,0,0,558,511
11,1,1,0,0,560,511
12,1,1,0,0,560,508
13,1,1,0,0,562,510
14,1,1,0,0,563,511
15,1,1,0,0,564,511
0,1,1,0,0,565,511
1,1,1,0,0,564,510
2,1,1,0,0,565,509
3,1,1,0,0,564,511
4,1,1,0,0,565,509
5,1,1,0,0,567,512
6,1,1,0,0,570,507
7,1,1,0,0,571,513
8,1,1,0,0,574,512
9,1,1,0,0,575,508
10,1,1,0,0,575,510
11,1,1,0,0,575,508
12,1,1,0,0,576,508
13,1,1,0,0,575,509
14,1,1,0,0,575,509
15,1,1,0,0,574,510
0,1,1,0,0,575,508
1,1,1,0,0,576,508
2,1,1,0,0,576,510
3,1,1,0,0,575,510
4,1,1,0,0,575,510
5,1,1,0,0,574,508
6,1,1,0,0,573,508
7,1,1,0,0,572,508
8,1,1,0,0,569,512
9,1,1,0,0,567,508
10,1,1,0,0,565,511
11,1,1,0,0,563,508
12,1,1,0,0,562,509
13,1,1,0,0,561,509
14,1,1,0,0,560,510
15,1,1,0,0,559,507
0,1,1,0,0,560,507
1,1,1,0,0,561,510
2,1,1,0,0,563,510
3,1,1,0,0,563,508
4,1,1,0,0,564,509
5,1,1,0,0,565,509
6,1,1,0,0,564,508
7,1,1,0,0,563,512
8,1,1,0,0,562,508
9,1,1,0,0,561,508
10,1,1,0,0,559,508
11,1,1,0,0,557,509
12,1,1,0,0,554,509
13,1,1,0,0,552,509
14,1,1,0,0,549,507
15,1,1,0,0,547,508
0,1,1,0,0,545,509
1,1,1,0,0,543,509
2,1,1,0,0,543,510
3,1,1,0,0,542,508
4,1,1,0,0,542,508
5,1,1,0,0,541,510
6,1,1,0,0,540,508
7,1,1,0,0,539,512
8,1,1,0,0,538,507
9,1,1,0,0,537,512
10,1,1,0,0,536,510
11,1,1,0,0,534,509
12,1,1,0,0,531,510
13,1,1,0,0,528,507
14,1,1,0,0,525,508
15,1,1,0,0,522,510
0,1,1,0,0,519,509
1,1,1,0,0,516,511
2,1,1,0,0,514,508
3,1,1,0,0,512,509
4,1,1,0,0,509,511
5,1,1,0,0,507,510
6,1,1,0,0,505,510
7,1,1,0,0,503,512
8,1,1,0,0,502,510
9,1,1,0,0,500,511
10,1,1,0,0,498,511
11,1,1,0,0,497,510
12,1,1,0,0,496,508
13,1,1,0,0,495,509
14,1,1,0,0,493,510
15,1,1,0,0,492,510
0,1,1,0,0,490,511
1,1,1,0,0,488,510
2,1,1,0,0,486,509
3,1,1,0,0,483,511
4,1,1,0,0,480,511
5,1,1,0,0,478,511
6,1,1,0,0,475,514
7,1,1,0,0,473,511
8,1,1,0,0,471,509
9,1,1,0,0,469,513
10,1,1,0,0,469,511
11,1,1,0,0,468,509
12,1,1,0,0,468,510
13,1,1,0,0,468,511
14,1,1,0,0,468,511
15,1,1,0,0,467,512
0,1,1,0,0,466,511
1,1,1,0,0,466,511
2,1,1,0,0,465,510
3,1,1,0,0,464,513
4,1,1,0,0,463,513
5,1,1,0,0,463,510
6,1,1,0,0,462,513
7,1,1,0,0,460,513
8,1,1,0,0,459,512
9,1,1,0,0,458,513
10,1,1,0,0,457,510
11,1,1,0,0,456,512
12,1,1,0,0,456,512
13,1,1,0,0,456,512
14,1,1,0,0,457,513
15,1,1,0,0,460,510
0,1,1,0,0,463,511
1,1,1,0,0,467,512
2,1,1,0,0,470,513
3,1,1,0,0,472,513
4,1,1,0,0,472,510
5,1,1,0,0,470,512
6,1,1,0,0,468,515
7,1,1,0,0,467,511
8,1,1,0,0,465,514
9,1,1,0,0,461,509
10,1,1,0,0,459,511
11,1,1,0,0,457,513
12,1,1,0,0,456,512
13,1,1,0,0,455,512
14,1,1,0,0,456,510
15,1,1,0,0,458,511
0,1,1,0,0,459,512
1,1,1,0,0,459,512
2,1,1,0,0,461,513
3,1,1,0,0,462,511
4,1,1,0,0,463,511
5,1,1,0,0,464,513
6,1,1,0,0,465,511
7,1,1,0,0,467,515
8,1,1,0,0,468,511
9,1,1,0,0,469,516
10,1,1,0,0,470,515
11,1,1,0,0,470,511
12,1,1,0,0,471,513
13,1,1,0,0,471,510
14,1,1,0,0,470,511
15,1,1,0,0,468,513
0,1,1,0,0,468,513
1,1,1,0,0,469,513
2,1,1,0,0,470,512
3,1,1,0,0,470,511
4,1,1,0,0,470,511
5,1,1,0,0,471,515
6,1,1,0,0,470,514
7,1,1,0,0,471,511
8,1,1,0,0,473,512
9,1,1,0,0,474,514
10,1,1,0,0,475,512
11,1,1,0,0,476,516
12,1,1,0,0,476,512
13,1,1,0,0,476,513
14,1,1,0,0,477,515
15,1,1,0,0,479,514
0,1,1,0,0,480,515
1,1,1,0,0,483,512
2,1,1,0,0,484,514
3,1,1,0,0,484,515
4,1,1,0,0,484,515
5,1,1,0,0,483,515
6,1,1,0,0,483,516
7,1,1,0,0,481,514
8,1,1,0,0,480,515
9,1,1,0,0,479,515
10,1,1,0,0,479,515
11,1,1,0,0,478,512
12,1,1,0,0,478,513
13,1,1,0,0,478,515
14,1,1,0,0,479,515
15,1,1,0,0,480,514
0,1,1,0,0,480,513
1,1,1,0,0,481,513
2,1,1,0,0,481,515
3,1,1,0,0,481,515
4,1,1,0,0,481,514
5,1,1,0,0,481,515
6,1,1,0,0,482,515
7,1,1,0,0,482,512
8,1,1,0,0,481,517
9,1,1,0,0,482,514
10,1,1,0,0,482,512
11,1,1,0,0,483,512
12,1,1,0,0,485,513
13,1,1,0,0,487,513
14,1,1,0,0,489,513
15,1,1,0,0,491,511
0,1,1,0,0,493,512
1,1,1,0,0,495,513
2,1,1,0,0,496,512
3,1,1,0,0,498,515
4,1,1,0,0,500,512
5,1,1,0,0,502,512
6,1,1,0,0,502,512
7,1,1,0,0,503,515
8,1,1,0,0,503,514
9,1,1,0,0,502,512
10,1,1,0,0,503,513
11,1,1,0,0,502,515
12,1,1,0,0,502,512
13,1,1,0,0,502,513
14,1,1,0,0,502,512
15,1,1,0,0,502,511
0,1,1,0,0,502,512
1,1,1,0,0,502,513
2,1,1,0,0,502,513
3,1,1,0,0,502,512
4,1,1,0,0,502,512
5,1,1,0,0,501,511
6,1,1,0,0,500,515
7,1,1,0,0,499,512
8,1,1,0,0,498,514
9,1,1,0,0,497,511
10,1,1,0,0,496,512
11,1,1,0,0,494,512
12,1,1,0,0,492,512
13,1,1,0,0,492,510
14,1,1,0,0,491,511
15,1,1,0,0,490,513
0,1,1,0,0,491,512
1,1,1,0,0,492,512
2,1,1,0,0,493,511
3,1,1,0,0,495,510
4,1,1,0,0,496,512
5,1,1,0,0,497,513
6,1,1,0,0,497,513
7,1,1,0,0,497,511
8,1,1,0,0,498,512
9,1,1,0,0,498,512
10,1,1,0,0,500,511
11,1,1,0,0,502,511
12,1,1,0,0,503,509
13,1,1,0,0,504,509
14,1,1,0,0,505,511
15,1,1,0,0,506,511
0,1,1,0,0,506,511
1,1,1,0,0,506,509
2,1,1,0,0,506,509
3,1,1,0,0,507,511
4,1,1,0,0,507,509
5,1,1,0,0,506,513
6,1,1,0,0,505,508
7,1,1,0,0,505,510
8,1,1,0,0,505,511
9,1,1,0,0,505,510
10,1,1,0,0,505,510
11,1,1,0,0,506,507
12,1,1,0,0,508,507
13,1,1,0,0,509,509
14,1,1,0,0,510,509
15,1,1,0,0,512,510
0,1,1,0,0,514,509
1,1,1,0,0,515,508
2,1,1,0,0,517,510
3,1,1,0,0,518,510
4,1,1,0,0,519,512
5,1,1,0,0,520,508
6,1,1,0,0,520,509
7,1,1,0,0,519,510
8,1,1,0,0,518,509
9,1,1,0,0,516,508
10,1,1,0,0,514,507
11,1,1,0,0,512,507
12,1,1,0,0,511,508
13,1,1,0,0,511,508
14,1,1,0,0,511,509
15,1,1,0,0,512,507
0,1,1,0,0,513,508
1,1,1,0,0,515,508
2,1,1,0,0,516,509
3,1,1,0,0,517,508
4,1,1,0,0,518,510
5,1,1,0,0,520,508
6,1,1,0,0,522,508
7,1,1,0,0,523,512
8,1,1,0,0,524,509
9,1,1,0,0,524,511
10,1,1,0,0,523,510
11,1,1,0,0,522,508
12,1,1,0,0,521,512
13,1,1,0,0,520,509
14,1,1,0,0,518,511
15,1,1,0,0,516,509
0,1,1,0,0,513,509
1,1,1,0,0,511,512
2,1,1,0,0,510,510
3,1,1,0,0,509,512
4,1,1,0,0,508,510
5,1,1,0,0,509,511
6,1,1,0,0,510,512
7,1,1,0,0,511,511
8,1,1,0,0,513,512
9,1,1,0,0,515,511
10,1,1,0,0,515,509
11,1,1,0,0,515,513
12,1,1,0,0,516,510
13,1,1,0,0,516,510
14,1,1,0,0,515,510
15,1,1,0,0,515,511
0,1,1,0,0,514,511
1,1,1,0,0,513,511
2,1,1,0,0,512,508
3,1,1,0,0,510,510
4,1,1,0,0,507,511
5,1,1,0,0,505,509
6,1,1,0,0,504,512
7,1,1,0,0,503,510
8,1,1,0,0,503,510
9,1,1,0,0,504,509
10,1,1,0,0,504,511
11,1,1,0,0,504,511
12,1,1,0,0,506,509
13,1,1,0,0,507,510
14,1,1,0,0,508,511
15,1,1,0,0,509,511
0,1,1,0,0,509,512
1,1,1,0,0,510,509
2,1,1,0,0,510,510
3,1,1,0,0,510,512
4,1,1,0,0,510,512
5,1,1,0,0,510,512
6,1,1,0,0,510,510
7,1,1,0,0,509,511
8,1,1,0,0,509,515
9,1,1,0,0,510,510
10,1,1,0,0,510,513
11,1,1,0,0,511,508
12,1,1,0,0,512,511
13,1,1,0,0,513,511
14,1,1,0,0,513,511
15,1,1,0,0,513,511
0,1,1,0,0,513,509
1,1,1,0,0,513,510
2,1,1,0,0,513,511
3,1,1,0,0,512,511
4,1,1,0,0,512,510
5,1,1,0,0,512,515
6,1,1,0,0,512,510
7,1,1,0,0,512,511
8,1,1,0,0,512,510
9,1,1,0,0,512,513
10,1,1,0,0,512,508
11,1,1,0,0,512,510
12,1,1,0,0,512,511
13,1,1,0,0,512,511
14,1,1,0,0,513,511
15,1,1,0,0,514,508
0,1,1,0,0,516,509
1,1,1,0,0,517,511
2,1,1,0,0,518,510
3,1,1,0,0,519,513
4,1,1,0,0,519,510
5,1,1,0,0,519,510
6,1,1,0,0,519,509
7,1,1,0,0,519,513
8,1,1,0,0,518,512
9,1,1,0,0,516,510
10,1,1,0,0,515,511
11,1,1,0,0,514,513
12,1,1,0,0,513,510
13,1,1,0,0,512,511
14,1,1,0,0,512,509
15,1,1,0,0,512,509
0,1,1,0,0,513,511
1,1,1,0,0,513,511
2,1,1,0,0,514,512
3,1,1,0,0,515,509
4,1,1,0,0,515,509
5,1,1,0,0,516,509
6,1,1,0,0,518,514
7,1,1,0,0,519,509
8,1,1,0,0,521,512
9,1,1,0,0,523,510
10,1,1,0,0,524,511
11,1,1,0,0,523,511
12,1,1,0,0,521,511
13,1,1,0,0,520,508
14,1,1,0,0,519,509
15,1,1,0,0,517,511
0,1,1,0,0,513,511
1,1,1,0,0,510,511
2,1,1,0,0,506,509
3,1,1,0,0,503,509
4,1,1,0,0,501,511
5,1,1,0,0,500,512
6,1,1,0,0,500,510
7,1,1,0,0,501,514
8,1,1,0,0,502,511
9,1,1,0,0,503,509
10,1,1,0,0,504,512
11,1,1,0,0,505,511
12,1,1,0,0,507,510
13,1,1,0,0,510,509
14,1,1,0,0,511,513
15,1,1,0,0,512,511
0,1,1,0,0,513,511
1,1,1,0,0,515,509
2,1,1,0,0,515,509
3,1,1,0,0,516,511
4,1,1,0,0,517,510
5,1,1,0,0,516,513
6,1,1,0,0,515,509
7,1,1,0,0,514,510
8,1,1,0,0,512,509
9,1,1,0,0,511,512
10,1,1,0,0,511,511
11,1,1,0,0,512,508
12,1,1,0,0,513,510
13,1,1,0,0,514,511
14,1,1,0,0,514,511
15,1,1,0,0,515,511
0,1,1,0,0,515,509
1,1,1,0,0,515,509
2,1,1,0,0,515,509
3,1,1,0,0,515,512
4,1,1,0,0,515,511
5,1,1,0,0,514,509
6,1,1,0,0,512,512
7,1,1,0,0,510,512
8,1,1,0,0,508,511
9,1,1,0,0,507,512
10,1,1,0,0,506,510
11,1,1,0,0,505,511
12,1,1,0,0,505,510
13,1,1,0,0,504,510
14,1,1,0,0,505,511
15,1,1,0,0,507,508
0,1,1,0,0,508,509
1,1,1,0,0,509,511
2,1,1,0,0,509,511
3,1,1,0,0,509,511
4,1,1,0,0,508,509
5,1,1,0,0,507,510
6,1,1,0,0,504,513
7,1,1,0,0,502,508
8,1,1,0,0,499,512
9,1,1,0,0,499,507
10,1,1,0,0,499,509
11,1,1,0,0,502,512
12,1,1,0,0,503,509
13,1,1,0,0,504,510
14,1,1,0,0,505,508
15,1,1,0,0,506,509
0,1,1,0,0,507,510
1,1,1,0,0,508,509
2,1,1,0,0,510,510
3,1,1,0,0,510,508
4,1,1,0,0,510,508
5,1,1,0,0,511,510
6,1,1,0,0,513,509
7,1,1,0,0,515,512
8,1,1,0,0,516,508
9,1,1,0,0,518,513
10,1,1,0,0,518,512
11,1,1,0,0,519,508
12,1,1,0,0,519,511
13,1,1,0,0,520,508
14,1,1,0,0,521,509
15,1,1,0,0,523,510
0,1,1,0,0,523,510
1,1,1,0,0,523,510
2,1,1,0,0,524,508
3,1,1,0,0,524,509
4,1,1,0,0,524,508
5,1,1,0,0,526,512
6,1,1,0,0,527,511
7,1,1,0,0,529,508
8,1,1,0,0,531,509
9,1,1,0,0,533,511
10,1,1,0,0,534,509
11,1,1,0,0,535,512
12,1,1,0,0,536,509
13,1,1,0,0,537,510
14,1,1,0,0,536,511
15,1,1,0,0,535,511
0,1,1,0,0,533,511
1,1,1,0,0,531,510
2,1,1,0,0,530,510
3,1,1,0,0,529,512
4,1,1,0,0,527,511
5,1,1,0,0,527,511
6,1,1,0,0,525,513
7,1,1,0,0,524,511
8,1,1,0,0,522,512
9,1,1,0,0,521,511
10,1,1,0,0,520,511
11,1,1,0,0,519,509
12,1,1,0,0,520,509
13,1,1,0,0,520,511
14,1,1,0,0,519,511
15,1,1,0,0,518,512
0,1,1,0,0,516,509
1,1,1,0,0,515,509
2,1,1,0,0,515,511
3,1,1,0,0,514,512
4,1,1,0,0,514,512
5,1,1,0,0,513,510
6,1,1,0,0,514,511
7,1,1,0,0,513,512
8,1,1,0,0,513,511
9,1,1,0,0,514,510
10,1,1,0,0,515,508
11,1,1,0,0,515,509
12,1,1,0,0,515,509
13,1,1,0,0,514,509
14,1,1,0,0,512,508
15,1,1,0,0,510,510
0,1,1,0,0,507,509
1,1,1,0,0,505,510
2,1,1,0,0,503,510
3,1,1,0,0,503,511
4,1,1,0,0,503,508
5,1,1,0,0,503,509
6,1,1,0,0,504,512
7,1,1,0,0,504,510
8,1,1,0,0,505,510
9,1,1,0,0,505,507
10,1,1,0,0,504,508
11,1,1,0,0,504,509
12,1,1,0,0,503,508
13,1,1,0,0,502,507
14,1,1,0,0,500,510
15,1,1,0,0,499,507
0,1,1,0,0,498,506
1,1,1,0,0,498,510
2,1,1,0,0,497,509
3,1,1,0,0,496,510
4,1,1,0,0,497,508
5,1,1,0,0,498,508
6,1,1,0,0,499,511
7,1,1,0,0,501,509
8,1,1,0,0,503,511
9,1,1,0,0,507,510
10,1,1,0,0,509,510
11,1,1,0,0,512,509
12,1,1,0,0,512,510
13,1,1,0,0,512,508
14,1,1,0,0,511,509
15,1,1,0,0,509,511
0,1,1,0,0,507,510
1,1,1,0,0,505,510
2,1,1,0,0,504,509
3,1,1,0,0,503,509
4,1,1,0,0,502,510
5,1,1,0,0,500,510
6,1,1,0,0,500,509
7,1,1,0,0,500,513
8,1,1,0,0,501,510
9,1,1,0,0,502,508
10,1,1,0,0,504,512
11,1,1,0,0,505,509
12,1,1,0,0,507,509
13,1,1,0,0,509,509
14,1,1,0,0,510,510
15,1,1,0,0,512,509
0,1,1,0,0,512,510
1,1,1,0,0,511,508
2,1,1,0,0,511,508
3,1,1,0,0,510,510
4,1,1,0,0,509,508
5,1,1,0,0,509,511
6,1,1,0,0,508,509
7,1,1,0,0,508,509
8,1,1,0,0,507,509
9,1,1,0,0,507,513
10,1,1,0,0,508,509
11,1,1,0,0,508,508
12,1,1,0,0,509,509
13,1,1,0,0,509,510
14,1,1,0,0,510,510
15,1,1,0,0,511,510
0,1,1,0,0,511,508
1,1,1,0,0,512,509
2,1,1,0,0,512,508
3,1,1,0,0,512,511
4,1,1,0,0,513,511
5,1,1,0,0,513,508
6,1,1,0,0,516,511
7,1,1,0,0,519,511
8,1,1,0,0,524,511
9,1,1,0,0,529,511
10,1,1,0,0,533,509
11,1,1,0,0,540,510
12,1,1,0,0,547,510
13,1,1,0,0,555,510
14,1,1,0,0,561,511
15,1,1,0,0,566,508
0,1,1,0,0,568,508
1,1,1,0,0,572,510
2,1,1,0,0,575,510
3,1,1,0,0,576,511
4,1,1,0,0,576,508
5,1,1,0,0,573,508
6,1,1,0,0,572,512
7,1,1,0,0,572,510
8,1,1,0,0,573,509
9,1,1,0,0,574,507
10,1,1,0,0,574,508
11,1,1,0,0,575,509
12,1,1,0,0,575,508
13,1,1,0,0,576,508
14,1,1,0,0,574,506
15,1,1,0,0,571,507
0,1,1,0,0,566,508
1,1,1,0,0,558,508
2,1,1,0,0,548,509
3,1,1,0,0,538,507
4,1,1,0,0,531,507
5,1,1,0,0,523,507
6,1,1,0,0,519,512
7,1,1,0,0,512,510
8,1,1,0,0,504,507
9,1,1,0,0,500,508
10,1,1,0,0,494,509
11,1,1,0,0,480,507
12,1,1,0,0,460,508
13,1,1,0,0,431,506
14,1,1,0,0,397,506
15,1,1,0,0,359,508
0,1,1,0,0,323,508
1,1,1,0,0,291,509
2,1,1,0,0,268,506
3,1,1,0,0,254,507
4,1,1,0,0,247,508
5,1,1,0,0,244,509
6,1,1,0,0,241,509
7,1,1,0,0,234,506
8,1,1,0,0,226,507
9,1,1,0,0,223,508
10,1,1,0,0,228,507
11,1,1,0,0,238,507
12,1,1,0,0,250,505
13,1,1,0,0,264,505
14,1,1,0,0,279,507
15,1,1,0,0,294,508
0,1,1,0,0,311,508
1,1,1,0,0,329,505
2,1,1,0,0,350,506
3,1,1,0,0,374,508
4,1,1,0,0,397,509
5,1,1,0,0,417,509
6,1,1,0,0,435,506
7,1,1,0,0,452,507
8,1,1,0,0,468,505
9,1,1,0,0,482,509
10,1,1,0,0,495,506
11,1,1,0,0,506,508
12,1,1,0,0,516,507
13,1,1,0,0,526,506
14,1,1,0,0,535,509
15,1,1,0,0,542,508
0,1,1,0,0,547,511
1,1,1,0,0,552,508
2,1,1,0,0,556,508
3,1,1,0,0,557,510
4,1,1,0,0,559,509
5,1,1,0,0,562,514
6,1,1,0,0,564,509
7,1,1,0,0,566,508
8,1,1,0,0,568,513
9,1,1,0,0,568,509
10,1,1,0,0,567,513
11,1,1,0,0,567,510
12,1,1,0,0,568,509
13,1,1,0,0,568,512
14,1,1,0,0,569,511
15,1,1,0,0,570,509
0,1,1,0,0,572,510
1,1,1,0,0,573,511
2,1,1,0,0,574,511
3,1,1,0,0,575,510
4,1,1,0,0,574,512
5,1,1,0,0,573,510
6,1,1,0,0,571,512
7,1,1,0,0,569,511
8,1,1,0,0,567,513
9,1,1,0,0,565,510
10,1,1,0,0,564,511
11,1,1,0,0,563,513
12,1,1,0,0,563,511
13,1,1,0,0,563,511
14,1,1,0,0,563,510
15,1,1,0,0,562,510
0,1,1,0,0,562,511
1,1,1,0,0,562,511
2,1,1,0,0,561,513
3,1,1,0,0,560,510
4,1,1,0,0,559,510
5,1,1,0,0,558,511
6,1,1,0,0,558,510
7,1,1,0,0,558,513
8,1,1,0,0,557,510
9,1,1,0,0,557,515
10,1,1,0,0,558,513
11,1,1,0,0,558,510
12,1,1,0,0,559,512
13,1,1,0,0,558,509
14,1,1,0,0,558,509
15,1,1,0,0,557,511
0,1,1,0,0,556,511
1,1,1,0,0,557,513
2,1,1,0,0,557,509
3,1,1,0,0,557,510
4,1,1,0,0,558,512
5,1,1,0,0,559,511
6,1,1,0,0,560,511
7,1,1,0,0,561,513
8,1,1,0,0,563,511
9,1,1,0,0,565,511
10,1,1,0,0,567,512
11,1,1,0,0,567,511
12,1,1,0,0,566,510
13,1,1,0,0,566,510
14,1,1,0,0,565,511
15,1,1,0,0,565,511
0,1,1,0,0,563,511
1,1,1,0,0,563,509
2,1,1,0,0,562,510
3,1,1,0,0,560,509
4,1,1,0,0,558,513
5,1,1,0,0,556,511
6,1,1,0,0,556,513
7,1,1,0,0,554,511
8,1,1,0,0,553,511
9,1,1,0,0,552,511
10,1,1,0,0,552,510
11,1,1,0,0,552,508
12,1,1,0,0,552,508
13,1,1,0,0,553,510
14,1,1,0,0,554,510
15,1,1,0,0,555,510
0,1,1,0,0,556,508
1,1,1,0,0,558,509
2,1,1,0,0,559,510
3,1,1,0,0,559,511
4,1,1,0,0,559,510
5,1,1,0,0,559,511
6,1,1,0,0,559,510
7,1,1,0,0,559,508
8,1,1,0,0,557,512
9,1,1,0,0,556,508
10,1,1,0,0,556,508
11,1,1,0,0,556,508
12,1,1,0,0,555,509
13,1,1,0,0,556,508
14,1,1,0,0,556,508
15,1,1,0,0,556,507
0,1,1,0,0,556,508
1,1,1,0,0,557,509
2,1,1,0,0,558,509
3,1,1,0,0,559,510
4,1,1,0,0,559,507
5,1,1,0,0,559,508
6,1,1,0,0,560,509
7,1,1,0,0,560,508
8,1,1,0,0,559,511
9,1,1,0,0,557,507
10,1,1,0,0,555,508
11,1,1,0,0,553,511
12,1,1,0,0,551,508
13,1,1,0,0,548,509
14,1,1,0,0,546,507
15,1,1,0,0,544,508
0,1,1,0,0,544,509
1,1,1,0,0,544,508
2,1,1,0,0,545,510
3,1,1,0,0,547,508
4,1,1,0,0,548,508
5,1,1,0,0,550,510
6,1,1,0,0,552,509
7,1,1,0,0,554,509
8,1,1,0,0,555,511
9,1,1,0,0,556,508
10,1,1,0,0,556,510
11,1,1,0,0,557,509
12,1,1,0,0,558,510
13,1,1,0,0,559,508
14,1,1,0,0,561,509
15,1,1,0,0,561,510
0,1,1,0,0,560,510
1,1,1,0,0,559,509
2,1,1,0,0,558,512
3,1,1,0,0,557,508
4,1,1,0,0,556,511
5,1,1,0,0,554,509
6,1,1,0,0,553,512
7,1,1,0,0,551,508
8,1,1,0,0,551,508
9,1,1,0,0,551,512
10,1,1,0,0,551,509
11,1,1,0,0,553,508
12,1,1,0,0,555,507
13,1,1,0,0,556,507
14,1,1,0,0,557,509
15,1,1,0,0,557,508
0,1,1,0,0,558,510
1,1,1,0,0,557,507
2,1,1,0,0,557,508
3,1,1,0,0,557,510
4,1,1,0,0,557,508
5,1,1,0,0,558,511
6,1,1,0,0,559,508
7,1,1,0,0,560,512
8,1,1,0,0,560,511
9,1,1,0,0,561,507
10,1,1,0,0,563,509
11,1,1,0,0,564,508
12,1,1,0,0,565,507
13,1,1,0,0,566,509
14,1,1,0,0,568,508
15,1,1,0,0,569,509
0,1,1,0,0,570,507
1,1,1,0,0,572,507
2,1,1,0,0,572,508
3,1,1,0,0,572,508
4,1,1,0,0,572,510
5,1,1,0,0,571,507
6,1,1,0,0,571,508
7,1,1,0,0,569,509
8,1,1,0,0,569,508
9,1,1,0,0,568,511
10,1,1,0,0,568,508
11,1,1,0,0,568,509
12,1,1,0,0,567,510
13,1,1,0,0,566,510
14,1,1,0,0,565,510
15,1,1,0,0,565,509
0,1,1,0,0,566,508
1,1,1,0,0,565,510
2,1,1,0,0,563,508
3,1,1,0,0,561,512
4,1,1,0,0,559,510
5,1,1,0,0,557,508
6,1,1,0,0,554,508
7,1,1,0,0,552,511
8,1,1,0,0,550,511
9,1,1,0,0,547,510
10,1,1,0,0,546,510
11,1,1,0,0,543,512
12,1,1,0,0,541,509
13,1,1,0,0,539,509
14,1,1,0,0,538,507
15,1,1,0,0,536,508
0,1,1,0,0,534,509
1,1,1,0,0,533,510
2,1,1,0,0,532,511
3,1,1,0,0,532,508
4,1,1,0,0,531,508
5,1,1,0,0,529,508
6,1,1,0,0,527,511
7,1,1,0,0,524,508
8,1,1,0,0,520,511
9,1,1,0,0,517,509
10,1,1,0,0,515,509
11,1,1,0,0,513,509
12,1,1,0,0,512,509
13,1,1,0,0,509,508
14,1,1,0,0,506,508
15,1,1,0,0,501,509
0,1,1,0,0,496,510
1,1,1,0,0,492,510
2,1,1,0,0,488,508
3,1,1,0,0,484,508
4,1,1,0,0,480,510
5,1,1,0,0,476,511
6,1,1,0,0,473,509
7,1,1,0,0,470,513
8,1,1,0,0,468,510
9,1,1,0,0,467,508
10,1,1,0,0,466,512
11,1,1,0,0,464,509
12,1,1,0,0,463,510
13,1,1,0,0,463,509
14,1,1,0,0,462,510
15,1,1,0,0,462,510
0,1,1,0,0,463,510
1,1,1,0,0,463,509
2,1,1,0,0,463,509
3,1,1,0,0,462,511
4,1,1,0,0,460,509
5,1,1,0,0,458,512
6,1,1,0,0,456,510
7,1,1,0,0,455,510
8,1,1,0,0,454,509
9,1,1,0,0,452,513
10,1,1,0,0,451,511
11,1,1,0,0,450,509
12,1,1,0,0,450,510
13,1,1,0,0,450,511
14,1,1,0,0,450,511
15,1,1,0,0,451,512
0,1,1,0,0,452,510
1,1,1,0,0,454,511
2,1,1,0,0,455,510
3,1,1,0,0,456,513
4,1,1,0,0,457,512
5,1,1,0,0,458,510
6,1,1,0,0,459,513
7,1,1,0,0,460,513
8,1,1,0,0,460,513
9,1,1,0,0,460,513
10,1,1,0,0,459,511
11,1,1,0,0,459,513
12,1,1,0,0,457,511
13,1,1,0,0,455,512
14,1,1,0,0,455,513
15,1,1,0,0,455,511
0,1,1,0,0,455,511
1,1,1,0,0,455,512
2,1,1,0,0,457,513
3,1,1,0,0,458,515
4,1,1,0,0,460,512
5,1,1,0,0,462,512
6,1,1,0,0,464,516
7,1,1,0,0,465,512
8,1,1,0,0,465,515
9,1,1,0,0,466,513
10,1,1,0,0,467,512
11,1,1,0,0,466,514
12,1,1,0,0,466,513
13,1,1,0,0,465,513
14,1,1,0,0,464,512
15,1,1,0,0,463,511
0,1,1,0,0,463,513
1,1,1,0,0,462,512
2,1,1,0,0,462,515
3,1,1,0,0,462,512
4,1,1,0,0,462,512
5,1,1,0,0,463,515
6,1,1,0,0,464,513
7,1,1,0,0,466,515
8,1,1,0,0,466,511
9,1,1,0,0,465,514
10,1,1,0,0,465,514
11,1,1,0,0,464,513
12,1,1,0,0,464,513
13,1,1,0,0,463,512
14,1,1,0,0,463,512
15,1,1,0,0,462,514
0,1,1,0,0,461,514
1,1,1,0,0,462,515
2,1,1,0,0,463,512
3,1,1,0,0,465,513
4,1,1,0,0,467,515
5,1,1,0,0,469,515
6,1,1,0,0,470,514
7,1,1,0,0,472,518
8,1,1,0,0,474,515
9,1,1,0,0,475,512
10,1,1,0,0,476,517
11,1,1,0,0,476,514
12,1,1,0,0,476,513
13,1,1,0,0,475,513
14,1,1,0,0,473,515
15,1,1,0,0,471,514
0,1,1,0,0,469,515
1,1,1,0,0,467,512
2,1,1,0,0,466,513
3,1,1,0,0,465,513
4,1,1,0,0,465,517
5,1,1,0,0,465,517
6,1,1,0,0,466,511
7,1,1,0,0,467,514
8,1,1,0,0,467,515
9,1,1,0,0,468,514
10,1,1,0,0,471,514
11,1,1,0,0,473,509
12,1,1,0,0,476,511
13,1,1,0,0,478,513
14,1,1,0,0,480,513
15,1,1,0,0,481,514
0,1,1,0,0,483,510
1,1,1,0,0,485,512
2,1,1,0,0,487,513
3,1,1,0,0,487,514
4,1,1,0,0,488,515
5,1,1,0,0,489,511
6,1,1,0,0,489,513
7,1,1,0,0,489,514
8,1,1,0,0,489,513
9,1,1,0,0,490,513
10,1,1,0,0,490,509
11,1,1,0,0,490,511
12,1,1,0,0,490,511
13,1,1,0,0,492,511
14,1,1,0,0,495,512
15,1,1,0,0,497,508
0,1,1,0,0,500,510
1,1,1,0,0,503,512
2,1,1,0,0,507,512
3,1,1,0,0,510,513
4,1,1,0,0,512,510
5,1,1,0,0,513,511
6,1,1,0,0,513,510
7,1,1,0,0,512,514
8,1,1,0,0,511,514
9,1,1,0,0,508,511
10,1,1,0,0,505,513
11,1,1,0,0,502,513
12,1,1,0,0,498,512
13,1,1,0,0,496,513
14,1,1,0,0,494,510
15,1,1,0,0,492,511
0,1,1,0,0,491,513
1,1,1,0,0,489,513
2,1,1,0,0,490,514
3,1,1,0,0,490,510
4,1,1,0,0,492,512
5,1,1,0,0,492,513
6,1,1,0,0,492,513
7,1,1,0,0,495,511
8,1,1,0,0,498,513
9,1,1,0,0,502,513
10,1,1,0,0,504,510
11,1,1,0,0,505,514
12,1,1,0,0,506,511
13,1,1,0,0,506,513
14,1,1,0,0,505,511
15,1,1,0,0,504,511
0,1,1,0,0,503,513
1,1,1,0,0,502,512
2,1,1,0,0,500,514
3,1,1,0,0,499,512
4,1,1,0,0,498,511
5,1,1,0,0,498,514
6,1,1,0,0,498,514
7,1,1,0,0,497,511
8,1,1,0,0,498,513
9,1,1,0,0,498,511
10,1,1,0,0,499,515
11,1,1,0,0,500,511
12,1,1,0,0,503,511
13,1,1,0,0,505,512
14,1,1,0,0,506,512
15,1,1,0,0,507,511
0,1,1,0,0,507,512
1,1,1,0,0,507,511
2,1,1,0,0,507,511
3,1,1,0,0,507,512
4,1,1,0,0,506,512
5,1,1,0,0,506,511
6,1,1,0,0,505,516
7,1,1,0,0,506,511
8,1,1,0,0,506,512
9,1,1,0,0,507,510
10,1,1,0,0,508,513
11,1,1,0,0,510,510
12,1,1,0,0,510,509
13,1,1,0,0,511,511
14,1,1,0,0,511,511
15,1,1,0,0,512,511
0,1,1,0,0,513,510
1,1,1,0,0,515,510
2,1,1,0,0,515,511
3,1,1,0,0,516,510
4,1,1,0,0,515,513
5,1,1,0,0,514,510
6,1,1,0,0,513,511
7,1,1,0,0,512,514
8,1,1,0,0,511,510
9,1,1,0,0,510,511
10,1,1,0,0,509,510
11,1,1,0,0,508,509
12,1,1,0,0,507,510
13,1,1,0,0,508,510
14,1,1,0,0,508,511
15,1,1,0,0,510,508
0,1,1,0,0,513,509
1,1,1,0,0,515,511
2,1,1,0,0,518,511
3,1,1,0,0,520,512
4,1,1,0,0,521,508
5,1,1,0,0,522,509
6,1,1,0,0,523,509
7,1,1,0,0,522,514
8,1,1,0,0,520,508
9,1,1,0,0,518,511
10,1,1,0,0,516,510
11,1,1,0,0,513,510
12,1,1,0,0,512,510
13,1,1,0,0,511,510
14,1,1,0,0,510,509
15,1,1,0,0,508,508
0,1,1,0,0,505,510
1,1,1,0,0,504,510
2,1,1,0,0,504,509
3,1,1,0,0,503,511
4,1,1,0,0,504,509
5,1,1,0,0,505,511
6,1,1,0,0,506,509
7,1,1,0,0,507,511
8,1,1,0,0,507,510
9,1,1,0,0,508,509
10,1,1,0,0,508,512
11,1,1,0,0,509,509
12,1,1,0,0,509,510
13,1,1,0,0,510,508
14,1,1,0,0,511,508
15,1,1,0,0,512,510
0,1,1,0,0,512,509
1,1,1,0,0,512,511
2,1,1,0,0,511,507
3,1,1,0,0,510,508
4,1,1,0,0,508,510
5,1,1,0,0,506,508
6,1,1,0,0,504,512
7,1,1,0,0,504,509
8,1,1,0,0,502,512
9,1,1,0,0,501,511
10,1,1,0,0,502,508
11,1,1,0,0,503,509
12,1,1,0,0,505,508
13,1,1,0,0,507,508
14,1,1,0,0,509,510
15,1,1,0,0,510,509
0,1,1,0,0,511,511
1,1,1,0,0,512,508
2,1,1,0,0,513,508
3,1,1,0,0,513,511
4,1,1,0,0,513,510
5,1,1,0,0,512,510
6,1,1,0,0,512,511
7,1,1,0,0,513,509
8,1,1,0,0,513,510
9,1,1,0,0,513,510
10,1,1,0,0,513,509
11,1,1,0,0,513,508
12,1,1,0,0,513,508
13,1,1,0,0,513,509
14,1,1,0,0,514,510
15,1,1,0,0,514,511
0,1,1,0,0,514,507
1,1,1,0,0,515,508
2,1,1,0,0,515,510
3,1,1,0,0,515,510
4,1,1,0,0,515,511
5,1,1,0,0,515,507
6,1,1,0,0,516,510
7,1,1,0,0,516,510
8,1,1,0,0,515,509
9,1,1,0,0,516,509
10,1,1,0,0,516,505
11,1,1,0,0,518,508
12,1,1,0,0,519,508
13,1,1,0,0,521,508
14,1,1,0,0,522,507
15,1,1,0,0,523,512
0,1,1,0,0,525,507
1,1,1,0,0,526,508
2,1,1,0,0,527,509
3,1,1,0,0,528,510
4,1,1,0,0,528,507
5,1,1,0,0,527,507
6,1,1,0,0,526,510
7,1,1,0,0,524,508
8,1,1,0,0,522,509
9,1,1,0,0,519,505
10,1,1,0,0,517,508
11,1,1,0,0,512,508
12,1,1,0,0,509,507
13,1,1,0,0,508,506
14,1,1,0,0,506,508
15,1,1,0,0,506,506
0,1,1,0,0,507,506
1,1,1,0,0,508,510
2,1,1,0,0,508,507
3,1,1,0,0,509,509
4,1,1,0,0,510,508
5,1,1,0,0,510,507
6,1,1,0,0,511,511
7,1,1,0,0,511,509
8,1,1,0,0,511,511
9,1,1,0,0,510,509
10,1,1,0,0,510,509
11,1,1,0,0,510,509
12,1,1,0,0,510,510
13,1,1,0,0,509,508
14,1,1,0,0,508,508
15,1,1,0,0,507,509
0,1,1,0,0,507,510
1,1,1,0,0,508,510
2,1,1,0,0,508,508
3,1,1,0,0,508,509
4,1,1,0,0,508,510
5,1,1,0,0,508,511
6,1,1,0,0,507,510
7,1,1,0,0,507,514
8,1,1,0,0,506,511
9,1,1,0,0,506,509
10,1,1,0,0,505,513
11,1,1,0,0,505,510
12,1,1,0,0,505,510
13,1,1,0,0,505,509
14,1,1,0,0,506,511
15,1,1,0,0,507,510
0,1,1,0,0,509,511
1,1,1,0,0,510,510
2,1,1,0,0,512,509
3,1,1,0,0,515,511
4,1,1,0,0,516,510
5,1,1,0,0,518,513
6,1,1,0,0,521,511
7,1,1,0,0,522,511
8,1,1,0,0,523,510
9,1,1,0,0,524,514
10,1,1,0,0,524,511
11,1,1,0,0,524,511
12,1,1,0,0,526,510
13,1,1,0,0,527,512
14,1,1,0,0,527,512
15,1,1,0,0,528,512
0,1,1,0,0,529,509
1,1,1,0,0,529,511
2,1,1,0,0,531,510
3,1,1,0,0,532,514
4,1,1,0,0,533,512
5,1,1,0,0,534,511
6,1,1,0,0,534,512
7,1,1,0,0,534,513
8,1,1,0,0,534,513
9,1,1,0,0,531,513
10,1,1,0,0,530,512
11,1,1,0,0,529,513
12,1,1,0,0,527,511
13,1,1,0,0,527,512
14,1,1,0,0,525,513
15,1,1,0,0,523,511
0,1,1,0,0,521,511
1,1,1,0,0,519,512
2,1,1,0,0,518,512
3,1,1,0,0,517,513
4,1,1,0,0,516,509
5,1,1,0,0,516,511
6,1,1,0,0,516,514
7,1,1,0,0,516,510
8,1,1,0,0,518,514
9,1,1,0,0,519,510
10,1,1,0,0,521,511
11,1,1,0,0,523,514
12,1,1,0,0,522,511
13,1,1,0,0,520,512
14,1,1,0,0,516,511
15,1,1,0,0,513,510
0,1,1,0,0,510,512
1,1,1,0,0,507,512
2,1,1,0,0,504,513
3,1,1,0,0,501,511
4,1,1,0,0,499,511
5,1,1,0,0,499,513
6,1,1,0,0,499,511
7,1,1,0,0,499,513
8,1,1,0,0,500,509
9,1,1,0,0,503,511
10,1,1,0,0,504,512
11,1,1,0,0,504,511
12,1,1,0,0,506,512
13,1,1,0,0,507,511
14,1,1,0,0,510,510
15,1,1,0,0,511,512
0,1,1,0,0,511,512
1,1,1,0,0,510,512
2,1,1,0,0,510,509
3,1,1,0,0,509,510
4,1,1,0,0,508,512
5,1,1,0,0,506,512
6,1,1,0,0,504,511
7,1,1,0,0,504,515
8,1,1,0,0,503,512
9,1,1,0,0,503,510
10,1,1,0,0,503,514
11,1,1,0,0,504,511
12,1,1,0,0,504,511
13,1,1,0,0,505,511
14,1,1,0,0,506,512
15,1,1,0,0,506,511
0,1,1,0,0,507,512
1,1,1,0,0,507,509
2,1,1,0,0,507,510
3,1,1,0,0,507,509
4,1,1,0,0,507,513
5,1,1,0,0,507,511
6,1,1,0,0,505,513
7,1,1,0,0,504,512
8,1,1,0,0,504,513
9,1,1,0,0,504,511
10,1,1,0,0,503,511
11,1,1,0,0,504,510
12,1,1,0,0,505,510
13,1,1,0,0,506,511
14,1,1,0,0,508,511
15,1,1,0,0,508,513
0,1,1,0,0,509,511
1,1,1,0,0,510,510
2,1,1,0,0,510,511
3,1,1,0,0,511,511
4,1,1,0,0,512,513
5,1,1,0,0,512,511
6,1,1,0,0,512,510
7,1,1,0,0,512,514
8,1,1,0,0,512,509
9,1,1,0,0,511,513
10,1,1,0,0,511,509
11,1,1,0,0,511,509
12,1,1,0,0,511,511
13,1,1,0,0,511,510
14,1,1,0,0,512,511
15,1,1,0,0,513,510
0,1,1,0,0,514,509
1,1,1,0,0,516,511
2,1,1,0,0,519,510
3,1,1,0,0,522,513
4,1,1,0,0,524,510
5,1,1,0,0,526,510
6,1,1,0,0,526,509
7,1,1,0,0,525,512
8,1,1,0,0,525,511
9,1,1,0,0,524,511
10,1,1,0,0,523,510
11,1,1,0,0,520,513
12,1,1,0,0,518,510
13,1,1,0,0,515,510
14,1,1,0,0,513,507
15,1,1,0,0,511,508
0,1,1,0,0,510,510
1,1,1,0,0,510,511
2,1,1,0,0,512,512
3,1,1,0,0,515,507
4,1,1,0,0,519,509
5,1,1,0,0,524,511
6,1,1,0,0,531,511
7,1,1,0,0,540,511
8,1,1,0,0,547,506
9,1,1,0,0,554,509
10,1,1,0,0,559,510
11,1,1,0,0,563,508
12,1,1,0,0,567,509
13,1,1,0,0,570,505
14,1,1,0,0,571,507
15,1,1,0,0,571,507
0,1,1,0,0,569,510
1,1,1,0,0,569,510
2,1,1,0,0,570,505
3,1,1,0,0,572,507
4,1,1,0,0,573,509
5,1,1,0,0,575,509
6,1,1,0,0,576,510
7,1,1,0,0,577,505
8,1,1,0,0,576,508
9,1,1,0,0,574,509
10,1,1,0,0,571,507
11,1,1,0,0,562,508
12,1,1,0,0,550,504
13,1,1,0,0,538,506
14,1,1,0,0,525,507
15,1,1,0,0,511,508
0,1,1,0,0,500,509
1,1,1,0,0,492,505
2,1,1,0,0,483,507
3,1,1,0,0,472,508
4,1,1,0,0,457,509
5,1,1,0,0,438,510
6,1,1,0,0,416,504
7,1,1,0,0,392,507
8,1,1,0,0,363,508
9,1,1,0,0,333,507
10,1,1,0,0,303,507
11,1,1,0,0,282,503
12,1,1,0,0,268,504
13,1,1,0,0,257,506
14,1,1,0,0,250,507
15,1,1,0,0,247,508
0,1,1,0,0,246,506
1,1,1,0,0,240,511
2,1,1,0,0,232,508
3,1,1,0,0,229,508
4,1,1,0,0,231,510
5,1,1,0,0,238,504
6,1,1,0,0,248,507
7,1,1,0,0,259,509
8,1,1,0,0,274,507
9,1,1,0,0,291,508
10,1,1,0,0,309,504
11,1,1,0,0,325,507
12,1,1,0,0,342,507
13,1,1,0,0,360,507
14,1,1,0,0,380,508
15,1,1,0,0,400,504
0,1,1,0,0,422,505
1,1,1,0,0,443,507
2,1,1,0,0,462,508
3,1,1,0,0,478,507
4,1,1,0,0,492,511
5,1,1,0,0,505,507
6,1,1,0,0,518,507
7,1,1,0,0,530,511
8,1,1,0,0,540,508
9,1,1,0,0,550,512
10,1,1,0,0,557,508
11,1,1,0,0,563,508
12,1,1,0,0,567,510
13,1,1,0,0,571,509
14,1,1,0,0,572,513
15,1,1,0,0,575,509
0,1,1,0,0,575,508
1,1,1,0,0,576,512
2,1,1,0,0,577,510
3,1,1,0,0,578,513
4,1,1,0,0,579,510
5,1,1,0,0,580,509
6,1,1,0,0,582,512
7,1,1,0,0,583,511
8,1,1,0,0,585,513
9,1,1,0,0,585,512
10,1,1,0,0,585,509
11,1,1,0,0,584,513
12,1,1,0,0,583,510
13,1,1,0,0,584,512
14,1,1,0,0,585,510
15,1,1,0,0,585,511
0,1,1,0,0,584,510
1,1,1,0,0,583,511
2,1,1,0,0,582,511
3,1,1,0,0,581,510
4,1,1,0,0,580,511
5,1,1,0,0,579,510
6,1,1,0,0,578,513
7,1,1,0,0,577,512
8,1,1,0,0,575,510
9,1,1,0,0,575,510
10,1,1,0,0,575,512
11,1,1,0,0,575,512
12,1,1,0,0,575,511
13,1,1,0,0,575,510
14,1,1,0,0,575,512
15,1,1,0,0,575,512
0,1,1,0,0,576,513
1,1,1,0,0,577,511
2,1,1,0,0,579,511
3,1,1,0,0,582,512
4,1,1,0,0,581,512
5,1,1,0,0,580,513
6,1,1,0,0,579,512
7,1,1,0,0,577,512
8,1,1,0,0,576,515
9,1,1,0,0,574,510
10,1,1,0,0,572,513
11,1,1,0,0,570,509
12,1,1,0,0,568,511
13,1,1,0,0,566,512
14,1,1,0,0,565,511
15,1,1,0,0,565,511
0,1,1,0,0,565,511
1,1,1,0,0,564,510
2,1,1,0,0,564,511
3,1,1,0,0,564,512
4,1,1,0,0,563,511
5,1,1,0,0,562,515
6,1,1,0,0,562,511
7,1,1,0,0,561,512
8,1,1,0,0,561,511
9,1,1,0,0,561,513
10,1,1,0,0,560,510
11,1,1,0,0,560,510
12,1,1,0,0,560,511
13,1,1,0,0,559,511
14,1,1,0,0,559,511
15,1,1,0,0,559,511
0,1,1,0,0,559,510
1,1,1,0,0,560,511
2,1,1,0,0,561,510
3,1,1,0,0,562,513
4,1,1,0,0,563,511
5,1,1,0,0,564,510
6,1,1,0,0,564,510
7,1,1,0,0,564,512
8,1,1,0,0,564,511
9,1,1,0,0,564,511
10,1,1,0,0,563,512
11,1,1,0,0,562,513
12,1,1,0,0,560,510
13,1,1,0,0,559,510
14,1,1,0,0,558,507
15,1,1,0,0,557,509
0,1,1,0,0,556,510
1,1,1,0,0,555,511
2,1,1,0,0,554,512
3,1,1,0,0,554,508
4,1,1,0,0,556,509
5,1,1,0,0,556,509
6,1,1,0,0,556,514
7,1,1,0,0,558,509
8,1,1,0,0,559,512
9,1,1,0,0,560,510
10,1,1,0,0,560,510
11,1,1,0,0,560,510
12,1,1,0,0,560,510
13,1,1,0,0,560,510
14,1,1,0,0,561,508
15,1,1,0,0,561,510
0,1,1,0,0,562,510
1,1,1,0,0,562,510
2,1,1,0,0,562,507
3,1,1,0,0,561,509
4,1,1,0,0,562,510
5,1,1,0,0,562,510
6,1,1,0,0,563,509
7,1,1,0,0,564,514
8,1,1,0,0,568,511
9,1,1,0,0,571,508
10,1,1,0,0,574,511
11,1,1,0,0,576,509
12,1,1,0,0,575,510
13,1,1,0,0,575,508
14,1,1,0,0,573,509
15,1,1,0,0,570,509
0,1,1,0,0,567,509
1,1,1,0,0,563,509
2,1,1,0,0,560,508
3,1,1,0,0,558,509
4,1,1,0,0,556,508
5,1,1,0,0,556,511
6,1,1,0,0,556,510
7,1,1,0,0,557,509
8,1,1,0,0,558,508
9,1,1,0,0,559,513
10,1,1,0,0,560,509
11,1,1,0,0,560,509
12,1,1,0,0,560,508
13,1,1,0,0,560,509
14,1,1,0,0,561,509
15,1,1,0,0,561,509
0,1,1,0,0,561,506
1,1,1,0,0,560,508
2,1,1,0,0,560,508
3,1,1,0,0,560,511
4,1,1,0,0,561,510
5,1,1,0,0,563,508
6,1,1,0,0,563,509
7,1,1,0,0,564,510
8,1,1,0,0,566,510
9,1,1,0,0,567,512
10,1,1,0,0,569,509
11,1,1,0,0,571,508
12,1,1,0,0,572,509
13,1,1,0,0,574,508
14,1,1,0,0,575,509
15,1,1,0,0,575,509
0,1,1,0,0,576,508
1,1,1,0,0,576,510
2,1,1,0,0,577,508
3,1,1,0,0,577,511
4,1,1,0,0,579,510
5,1,1,0,0,580,508
6,1,1,0,0,580,508
7,1,1,0,0,581,512
8,1,1,0,0,580,509
9,1,1,0,0,579,509
10,1,1,0,0,578,510
11,1,1,0,0,577,511
12,1,1,0,0,575,508
13,1,1,0,0,575,508
14,1,1,0,0,574,505
15,1,1,0,0,573,507
0,1,1,0,0,574,508
1,1,1,0,0,575,509
2,1,1,0,0,575,510
3,1,1,0,0,575,505
4,1,1,0,0,577,507
5,1,1,0,0,579,507
6,1,1,0,0,580,511
7,1,1,0,0,583,507
8,1,1,0,0,584,510
9,1,1,0,0,587,508
10,1,1,0,0,587,510
11,1,1,0,0,587,508
12,1,1,0,0,584,508
13,1,1,0,0,582,508
14,1,1,0,0,577,507
15,1,1,0,0,573,508
0,1,1,0,0,568,508
1,1,1,0,0,564,510
2,1,1,0,0,560,509
3,1,1,0,0,557,508
4,1,1,0,0,553,509
5,1,1,0,0,550,509
6,1,1,0,0,547,511
7,1,1,0,0,544,509
8,1,1,0,0,542,508
9,1,1,0,0,542,512
10,1,1,0,0,541,507
11,1,1,0,0,539,511
12,1,1,0,0,537,509
13,1,1,0,0,535,508
14,1,1,0,0,533,510
15,1,1,0,0,531,509
0,1,1,0,0,530,510
1,1,1,0,0,528,510
2,1,1,0,0,525,509
3,1,1,0,0,523,511
4,1,1,0,0,520,510
5,1,1,0,0,518,510
6,1,1,0,0,517,512
7,1,1,0,0,517,509
8,1,1,0,0,516,510
9,1,1,0,0,516,510
10,1,1,0,0,514,510
11,1,1,0,0,511,509
12,1,1,0,0,508,508
13,1,1,0,0,505,509
14,1,1,0,0,501,510
15,1,1,0,0,497,510
0,1,1,0,0,492,506
1,1,1,0,0,488,508
2,1,1,0,0,484,510
3,1,1,0,0,480,510
4,1,1,0,0,477,509
5,1,1,0,0,474,513
6,1,1,0,0,471,511
7,1,1,0,0,467,508
8,1,1,0,0,463,512
9,1,1,0,0,461,509
10,1,1,0,0,458,509
11,1,1,0,0,456,510
12,1,1,0,0,455,509
13,1,1,0,0,454,509
14,1,1,0,0,455,509
15,1,1,0,0,455,506
0,1,1,0,0,457,508
1,1,1,0,0,459,510
2,1,1,0,0,459,510
3,1,1,0,0,459,512
4,1,1,0,0,458,507
5,1,1,0,0,458,509
6,1,1,0,0,457,508
7,1,1,0,0,456,514
8,1,1,0,0,456,509
9,1,1,0,0,457,511
10,1,1,0,0,457,510
11,1,1,0,0,458,512
12,1,1,0,0,459,511
13,1,1,0,0,458,512
14,1,1,0,0,458,507
15,1,1,0,0,456,509
0,1,1,0,0,455,510
1,1,1,0,0,453,511
2,1,1,0,0,452,511
3,1,1,0,0,450,511
4,1,1,0,0,450,510
5,1,1,0,0,450,511
6,1,1,0,0,450,512
7,1,1,0,0,451,511
8,1,1,0,0,451,515
9,1,1,0,0,453,512
10,1,1,0,0,454,511
11,1,1,0,0,455,511
12,1,1,0,0,455,512
13,1,1,0,0,456,512
14,1,1,0,0,458,512
15,1,1,0,0,459,513
0,1,1,0,0,460,512
1,1,1,0,0,460,514
2,1,1,0,0,461,512
3,1,1,0,0,462,512
4,1,1,0,0,463,513
5,1,1,0,0,463,514
6,1,1,0,0,463,515
7,1,1,0,0,463,513
8,1,1,0,0,464,513
9,1,1,0,0,464,516
10,1,1,0,0,466,512
11,1,1,0,0,467,514
12,1,1,0,0,467,515
13,1,1,0,0,470,512
14,1,1,0,0,471,514
15,1,1,0,0,472,513
0,1,1,0,0,472,513
1,1,1,0,0,472,514
2,1,1,0,0,471,513
3,1,1,0,0,470,514
4,1,1,0,0,469,514
5,1,1,0,0,467,516
6,1,1,0,0,465,511
7,1,1,0,0,464,513
8,1,1,0,0,464,515
9,1,1,0,0,464,513
10,1,1,0,0,465,516
11,1,1,0,0,466,515
12,1,1,0,0,467,515
13,1,1,0,0,468,515
14,1,1,0,0,469,515
15,1,1,0,0,470,515
0,1,1,0,0,471,515
1,1,1,0,0,472,514
2,1,1,0,0,472,513
3,1,1,0,0,473,517
4,1,1,0,0,474,518
5,1,1,0,0,474,512
6,1,1,0,0,475,515
7,1,1,0,0,475,517
8,1,1,0,0,476,515
9,1,1,0,0,476,516
10,1,1,0,0,477,510
11,1,1,0,0,478,513
12,1,1,0,0,478,514
13,1,1,0,0,480,513
14,1,1,0,0,482,515
15,1,1,0,0,484,510
0,1,1,0,0,485,512
1,1,1,0,0,486,515
2,1,1,0,0,486,514
3,1,1,0,0,486,516
4,1,1,0,0,485,511
5,1,1,0,0,485,513
6,1,1,0,0,485,515
7,1,1,0,0,486,514
8,1,1,0,0,487,515
9,1,1,0,0,487,509
10,1,1,0,0,488,513
11,1,1,0,0,486,514
12,1,1,0,0,485,512
13,1,1,0,0,485,512
14,1,1,0,0,485,513
15,1,1,0,0,484,511
0,1,1,0,0,484,513
1,1,1,0,0,484,513
2,1,1,0,0,486,515
3,1,1,0,0,487,510
4,1,1,0,0,489,512
5,1,1,0,0,490,513
6,1,1,0,0,492,514
7,1,1,0,0,494,515
8,1,1,0,0,496,509
9,1,1,0,0,497,513
10,1,1,0,0,499,514
11,1,1,0,0,500,512
12,1,1,0,0,502,514
13,1,1,0,0,502,509
14,1,1,0,0,503,511
15,1,1,0,0,503,512
0,1,1,0,0,503,512
1,1,1,0,0,503,514
2,1,1,0,0,502,509
3,1,1,0,0,501,511
4,1,1,0,0,500,512
5,1,1,0,0,499,515
6,1,1,0,0,498,512
7,1,1,0,0,498,514
8,1,1,0,0,499,513
9,1,1,0,0,497,513
10,1,1,0,0,498,512
11,1,1,0,0,499,513
12,1,1,0,0,498,511
13,1,1,0,0,498,510
14,1,1,0,0,497,512
15,1,1,0,0,498,511
0,1,1,0,0,498,513
1,1,1,0,0,498,511
2,1,1,0,0,497,511
3,1,1,0,0,498,514
4,1,1,0,0,498,511
5,1,1,0,0,499,514
6,1,1,0,0,500,513
7,1,1,0,0,502,511
8,1,1,0,0,503,515
9,1,1,0,0,504,511
10,1,1,0,0,505,514
11,1,1,0,0,507,509
12,1,1,0,0,508,512
13,1,1,0,0,510,512
14,1,1,0,0,510,512
15,1,1,0,0,511,513
0,1,1,0,0,512,508
1,1,1,0,0,514,510
2,1,1,0,0,515,512
3,1,1,0,0,515,512
4,1,1,0,0,514,514
5,1,1,0,0,512,508
6,1,1,0,0,511,511
7,1,1,0,0,510,512
8,1,1,0,0,507,512
9,1,1,0,0,506,512
10,1,1,0,0,505,508
11,1,1,0,0,504,511
12,1,1,0,0,502,511
13,1,1,0,0,500,511
14,1,1,0,0,500,512
15,1,1,0,0,500,508
0,1,1,0,0,502,510
1,1,1,0,0,504,511
2,1,1,0,0,508,511
3,1,1,0,0,511,513
4,1,1,0,0,514,508
5,1,1,0,0,517,510
6,1,1,0,0,519,513
7,1,1,0,0,519,510
8,1,1,0,0,519,512
9,1,1,0,0,517,511
10,1,1,0,0,515,510
11,1,1,0,0,512,513
12,1,1,0,0,511,509
13,1,1,0,0,508,512
14,1,1,0,0,506,512
15,1,1,0,0,505,510
0,1,1,0,0,504,512
1,1,1,0,0,504,510
2,1,1,0,0,504,513
3,1,1,0,0,506,512
4,1,1,0,0,508,511
5,1,1,0,0,510,512
6,1,1,0,0,511,511
7,1,1,0,0,512,512
8,1,1,0,0,515,512
9,1,1,0,0,516,514
10,1,1,0,0,515,513
11,1,1,0,0,515,511
12,1,1,0,0,514,511
13,1,1,0,0,514,512
14,1,1,0,0,513,510
15,1,1,0,0,513,512
0,1,1,0,0,512,511
1,1,1,0,0,511,513
2,1,1,0,0,510,511
3,1,1,0,0,510,510
4,1,1,0,0,509,512
5,1,1,0,0,508,512
6,1,1,0,0,508,511
7,1,1,0,0,508,513
8,1,1,0,0,508,510
9,1,1,0,0,508,512
10,1,1,0,0,509,511
11,1,1,0,0,510,511
12,1,1,0,0,511,511
13,1,1,0,0,512,509
14,1,1,0,0,513,511
15,1,1,0,0,514,511
0,1,1,0,0,515,511
1,1,1,0,0,515,508
2,1,1,0,0,515,510
3,1,1,0,0,516,510
4,1,1,0,0,516,511
5,1,1,0,0,517,510
6,1,1,0,0,516,515
7,1,1,0,0,516,512
8,1,1,0,0,517,509
9,1,1,0,0,518,513
10,1,1,0,0,519,510
11,1,1,0,0,519,510
12,1,1,0,0,518,509
13,1,1,0,0,516,510
14,1,1,0,0,515,511
15,1,1,0,0,514,512
0,1,1,0,0,514,510
1,1,1,0,0,516,510
2,1,1,0,0,517,508
3,1,1,0,0,518,512
4,1,1,0,0,517,511
5,1,1,0,0,517,508
6,1,1,0,0,516,510
7,1,1,0,0,515,511
8,1,1,0,0,512,511
9,1,1,0,0,510,511
10,1,1,0,0,509,510
11,1,1,0,0,508,511
12,1,1,0,0,507,509
13,1,1,0,0,506,509
14,1,1,0,0,506,512
15,1,1,0,0,506,510
0,1,1,0,0,507,508
1,1,1,0,0,508,509
2,1,1,0,0,509,510
3,1,1,0,0,511,511
4,1,1,0,0,512,510
5,1,1,0,0,512,509
6,1,1,0,0,513,512
7,1,1,0,0,516,508
8,1,1,0,0,518,512
9,1,1,0,0,518,509
10,1,1,0,0,518,507
11,1,1,0,0,517,511
12,1,1,0,0,515,508
13,1,1,0,0,513,508
14,1,1,0,0,511,508
15,1,1,0,0,510,507
0,1,1,0,0,509,509
1,1,1,0,0,508,508
2,1,1,0,0,508,511
3,1,1,0,0,509,505
4,1,1,0,0,510,507
5,1,1,0,0,512,509
6,1,1,0,0,513,508
7,1,1,0,0,514,511
8,1,1,0,0,516,509
9,1,1,0,0,519,512
10,1,1,0,0,521,512
11,1,1,0,0,521,507
12,1,1,0,0,520,509
13,1,1,0,0,518,508
14,1,1,0,0,516,507
15,1,1,0,0,514,508
0,1,1,0,0,511,508
1,1,1,0,0,510,508
2,1,1,0,0,508,505
3,1,1,0,0,507,507
4,1,1,0,0,506,507
5,1,1,0,0,507,511
6,1,1,0,0,506,509
7,1,1,0,0,507,510
8,1,1,0,0,508,510
9,1,1,0,0,511,511
10,1,1,0,0,513,509
11,1,1,0,0,515,508
12,1,1,0,0,518,509
13,1,1,0,0,521,508
14,1,1,0,0,524,510
15,1,1,0,0,527,509
0,1,1,0,0,529,511
1,1,1,0,0,529,510
2,1,1,0,0,530,508
3,1,1,0,0,530,511
4,1,1,0,0,529,510
5,1,1,0,0,527,510
6,1,1,0,0,526,511
7,1,1,0,0,524,509
8,1,1,0,0,522,511
9,1,1,0,0,520,510
10,1,1,0,0,519,510
11,1,1,0,0,520,510
12,1,1,0,0,521,508
13,1,1,0,0,523,510
14,1,1,0,0,524,510
15,1,1,0,0,525,510
0,1,1,0,0,526,507
1,1,1,0,0,527,509
2,1,1,0,0,527,510
3,1,1,0,0,527,511
4,1,1,0,0,527,510
5,1,1,0,0,526,512
6,1,1,0,0,524,511
7,1,1,0,0,524,508
8,1,1,0,0,522,512
9,1,1,0,0,522,508
10,1,1,0,0,521,509
11,1,1,0,0,520,511
12,1,1,0,0,519,509
13,1,1,0,0,518,509
14,1,1,0,0,517,509
15,1,1,0,0,518,506
0,1,1,0,0,519,508
1,1,1,0,0,520,510
2,1,1,0,0,521,510
3,1,1,0,0,522,512
4,1,1,0,0,522,507
5,1,1,0,0,522,509
6,1,1,0,0,523,510
7,1,1,0,0,522,511
8,1,1,0,0,521,509
9,1,1,0,0,518,513
10,1,1,0,0,515,511
11,1,1,0,0,512,508
12,1,1,0,0,510,512
13,1,1,0,0,508,511
14,1,1,0,0,506,512
15,1,1,0,0,504,509
0,1,1,0,0,504,511
1,1,1,0,0,504,510
2,1,1,0,0,505,510
3,1,1,0,0,505,514
4,1,1,0,0,505,511
5,1,1,0,0,505,512
6,1,1,0,0,505,511
7,1,1,0,0,505,512
8,1,1,0,0,506,512
9,1,1,0,0,507,515
10,1,1,0,0,508,513
11,1,1,0,0,509,511
12,1,1,0,0,509,511
13,1,1,0,0,509,511
14,1,1,0,0,510,510
15,1,1,0,0,509,512
0,1,1,0,0,507,511
1,1,1,0,0,507,514
2,1,1,0,0,505,512
3,1,1,0,0,504,510
4,1,1,0,0,504,513
5,1,1,0,0,504,512
6,1,1,0,0,505,512
7,1,1,0,0,507,513
8,1,1,0,0,509,511
9,1,1,0,0,511,513
10,1,1,0,0,512,512
11,1,1,0,0,513,511
12,1,1,0,0,513,512
13,1,1,0,0,513,511
14,1,1,0,0,512,512
15,1,1,0,0,512,513
0,1,1,0,0,511,512
1,1,1,0,0,512,509
2,1,1,0,0,512,511
3,1,1,0,0,511,513
4,1,1,0,0,510,513
5,1,1,0,0,510,511
6,1,1,0,0,509,516
7,1,1,0,0,509,513
8,1,1,0,0,509,511
9,1,1,0,0,508,515
10,1,1,0,0,507,512
11,1,1,0,0,508,513
12,1,1,0,0,509,511
13,1,1,0,0,511,513
14,1,1,0,0,513,512
15,1,1,0,0,514,512
0,1,1,0,0,515,509
1,1,1,0,0,515,511
2,1,1,0,0,516,510
3,1,1,0,0,517,514
4,1,1,0,0,518,513
5,1,1,0,0,518,511
6,1,1,0,0,519,511
7,1,1,0,0,518,513
8,1,1,0,0,517,513
9,1,1,0,0,515,513
10,1,1,0,0,515,512
11,1,1,0,0,515,513
12,1,1,0,0,513,511
13,1,1,0,0,511,511
14,1,1,0,0,512,513
15,1,1,0,0,511,511
0,1,1,0,0,510,510
1,1,1,0,0,511,512
2,1,1,0,0,511,512
3,1,1,0,0,510,513
4,1,1,0,0,509,512
5,1,1,0,0,509,511
6,1,1,0,0,510,514
7,1,1,0,0,511,510
8,1,1,0,0,512,513
9,1,1,0,0,512,510
10,1,1,0,0,512,510
11,1,1,0,0,513,513
12,1,1,0,0,514,510
13,1,1,0,0,517,510
14,1,1,0,0,522,511
15,1,1,0,0,528,509
0,1,1,0,0,534,511
1,1,1,0,0,542,510
2,1,1,0,0,548,513
3,1,1,0,0,554,508
4,1,1,0,0,560,509
5,1,1,0,0,566,511
6,1,1,0,0,571,510
7,1,1,0,0,574,512
8,1,1,0,0,576,511
9,1,1,0,0,577,514
10,1,1,0,0,577,513
11,1,1,0,0,576,509
12,1,1,0,0,577,510
13,1,1,0,0,580,507
14,1,1,0,0,582,509
15,1,1,0,0,584,510
0,1,1,0,0,586,510
1,1,1,0,0,586,510
2,1,1,0,0,585,506
3,1,1,0,0,581,509
4,1,1,0,0,575,511
5,1,1,0,0,566,511
6,1,1,0,0,553,512
7,1,1,0,0,540,507
8,1,1,0,0,527,509
9,1,1,0,0,515,512
10,1,1,0,0,506,511
11,1,1,0,0,499,511
12,1,1,0,0,493,506
13,1,1,0,0,486,509
14,1,1,0,0,473,510
15,1,1,0,0,456,510
0,1,1,0,0,437,512
1,1,1,0,0,415,506
2,1,1,0,0,390,508
3,1,1,0,0,360,510
4,1,1,0,0,328,510
5,1,1,0,0,302,512
6,1,1,0,0,284,505
7,1,1,0,0,271,510
8,1,1,0,0,259,507
9,1,1,0,0,253,512
10,1,1,0,0,250,510
11,1,1,0,0,246,504
12,1,1,0,0,240,507
13,1,1,0,0,234,509
14,1,1,0,0,233,509
15,1,1,0,0,238,511
0,1,1,0,0,247,505
1,1,1,0,0,259,508
2,1,1,0,0,273,510
3,1,1,0,0,291,510
4,1,1,0,0,309,512
5,1,1,0,0,327,506
6,1,1,0,0,346,510
7,1,1,0,0,364,510
8,1,1,0,0,383,509
9,1,1,0,0,403,510
10,1,1,0,0,424,504
11,1,1,0,0,445,508
12,1,1,0,0,464,508
13,1,1,0,0,480,508
14,1,1,0,0,494,509
15,1,1,0,0,505,504
0,1,1,0,0,516,506
1,1,1,0,0,527,508
2,1,1,0,0,539,507
3,1,1,0,0,550,510
4,1,1,0,0,558,505
5,1,1,0,0,565,508
6,1,1,0,0,571,510
7,1,1,0,0,575,508
8,1,1,0,0,576,510
9,1,1,0,0,576,507
10,1,1,0,0,576,505
11,1,1,0,0,574,510
12,1,1,0,0,573,506
13,1,1,0,0,574,509
14,1,1,0,0,574,506
15,1,1,0,0,574,507
0,1,1,0,0,575,510
1,1,1,0,0,575,508
2,1,1,0,0,575,510
3,1,1,0,0,574,510
4,1,1,0,0,573,508
5,1,1,0,0,572,510
6,1,1,0,0,571,509
7,1,1,0,0,569,511
8,1,1,0,0,568,508
9,1,1,0,0,568,508
10,1,1,0,0,568,510
11,1,1,0,0,567,509
12,1,1,0,0,566,511
13,1,1,0,0,565,511
14,1,1,0,0,564,509
15,1,1,0,0,563,510
0,1,1,0,0,563,510
1,1,1,0,0,564,510
2,1,1,0,0,566,511
3,1,1,0,0,567,509
4,1,1,0,0,568,512
5,1,1,0,0,570,511
6,1,1,0,0,571,511
7,1,1,0,0,572,512
8,1,1,0,0,572,510
9,1,1,0,0,572,512
10,1,1,0,0,571,511
11,1,1,0,0,570,511
12,1,1,0,0,569,511
13,1,1,0,0,568,510
14,1,1,0,0,567,511
15,1,1,0,0,567,511
0,1,1,0,0,566,511
1,1,1,0,0,566,508
2,1,1,0,0,566,510
3,1,1,0,0,566,511
4,1,1,0,0,567,511
5,1,1,0,0,567,511
6,1,1,0,0,568,515
7,1,1,0,0,568,512
8,1,1,0,0,569,509
9,1,1,0,0,569,513
10,1,1,0,0,569,512
11,1,1,0,0,568,506
12,1,1,0,0,568,508
13,1,1,0,0,566,510
14,1,1,0,0,564,511
15,1,1,0,0,562,510
0,1,1,0,0,560,511
1,1,1,0,0,559,509
2,1,1,0,0,559,508
3,1,1,0,0,559,512
4,1,1,0,0,558,511
5,1,1,0,0,558,509
6,1,1,0,0,558,510
7,1,1,0,0,558,511
8,1,1,0,0,558,511
9,1,1,0,0,557,511
10,1,1,0,0,557,511
11,1,1,0,0,557,511
12,1,1,0,0,557,509
13,1,1,0,0,557,509
14,1,1,0,0,557,512
15,1,1,0,0,558,511
0,1,1,0,0,559,508
1,1,1,0,0,560,510
2,1,1,0,0,562,510
3,1,1,0,0,564,512
4,1,1,0,0,564,511
5,1,1,0,0,564,509
6,1,1,0,0,563,513
7,1,1,0,0,561,509
8,1,1,0,0,560,512
9,1,1,0,0,559,509
10,1,1,0,0,557,508
11,1,1,0,0,556,510
12,1,1,0,0,555,509
13,1,1,0,0,552,510
14,1,1,0,0,551,510
15,1,1,0,0,552,508
0,1,1,0,0,551,509
1,1,1,0,0,552,509
2,1,1,0,0,553,511
3,1,1,0,0,553,505
4,1,1,0,0,555,508
5,1,1,0,0,556,510
6,1,1,0,0,557,508
7,1,1,0,0,557,511
8,1,1,0,0,557,510
9,1,1,0,0,556,513
10,1,1,0,0,556,511
11,1,1,0,0,555,508
12,1,1,0,0,554,509
13,1,1,0,0,552,509
14,1,1,0,0,550,508
15,1,1,0,0,549,510
0,1,1,0,0,547,509
1,1,1,0,0,547,509
2,1,1,0,0,547,506
3,1,1,0,0,547,508
4,1,1,0,0,548,508
5,1,1,0,0,550,511
6,1,1,0,0,553,510
7,1,1,0,0,556,511
8,1,1,0,0,557,509
9,1,1,0,0,558,510
10,1,1,0,0,560,508
11,1,1,0,0,561,512
12,1,1,0,0,563,511
13,1,1,0,0,564,509
14,1,1,0,0,564,510
15,1,1,0,0,563,510
0,1,1,0,0,562,510
1,1,1,0,0,560,511
2,1,1,0,0,559,509
3,1,1,0,0,557,511
4,1,1,0,0,555,511
5,1,1,0,0,553,511
6,1,1,0,0,552,512
7,1,1,0,0,552,510
8,1,1,0,0,553,511
9,1,1,0,0,554,511
10,1,1,0,0,556,510
11,1,1,0,0,556,510
12,1,1,0,0,558,508
13,1,1,0,0,560,510
14,1,1,0,0,562,510
15,1,1,0,0,564,510
0,1,1,0,0,566,506
1,1,1,0,0,568,508
2,1,1,0,0,569,510
3,1,1,0,0,571,510
4,1,1,0,0,573,509
5,1,1,0,0,574,513
6,1,1,0,0,575,511
7,1,1,0,0,578,508
8,1,1,0,0,580,511
9,1,1,0,0,582,508
10,1,1,0,0,581,510
11,1,1,0,0,580,510
12,1,1,0,0,578,509
13,1,1,0,0,575,508
14,1,1,0,0,573,508
15,1,1,0,0,571,505
0,1,1,0,0,569,508
1,1,1,0,0,568,508
2,1,1,0,0,567,509
3,1,1,0,0,566,511
4,1,1,0,0,566,506
5,1,1,0,0,566,508
6,1,1,0,0,568,508
7,1,1,0,0,571,512
8,1,1,0,0,572,508
9,1,1,0,0,574,510
10,1,1,0,0,577,509
11,1,1,0,0,579,511
12,1,1,0,0,579,508
13,1,1,0,0,579,509
14,1,1,0,0,577,510
15,1,1,0,0,574,508
0,1,1,0,0,569,509
1,1,1,0,0,565,508
2,1,1,0,0,560,511
3,1,1,0,0,556,509
4,1,1,0,0,552,508
5,1,1,0,0,551,509
6,1,1,0,0,551,509
7,1,1,0,0,551,512
8,1,1,0,0,551,510
9,1,1,0,0,551,508
10,1,1,0,0,551,512
11,1,1,0,0,551,508
12,1,1,0,0,550,511
13,1,1,0,0,549,510
14,1,1,0,0,548,508
15,1,1,0,0,547,510
0,1,1,0,0,544,509
1,1,1,0,0,541,509
2,1,1,0,0,539,506
3,1,1,0,0,536,508
4,1,1,0,0,534,508
5,1,1,0,0,532,511
6,1,1,0,0,531,509
7,1,1,0,0,529,511
8,1,1,0,0,528,510
9,1,1,0,0,527,511
10,1,1,0,0,527,509
11,1,1,0,0,525,510
12,1,1,0,0,524,510
13,1,1,0,0,522,508
14,1,1,0,0,520,510
15,1,1,0,0,517,509
0,1,1,0,0,514,511
1,1,1,0,0,510,510
2,1,1,0,0,507,508
3,1,1,0,0,503,510
4,1,1,0,0,499,511
5,1,1,0,0,497,513
6,1,1,0,0,494,511
7,1,1,0,0,492,509
8,1,1,0,0,490,513
9,1,1,0,0,489,509
10,1,1,0,0,488,512
11,1,1,0,0,487,510
12,1,1,0,0,487,509
13,1,1,0,0,488,510
14,1,1,0,0,489,510
15,1,1,0,0,490,510
0,1,1,0,0,491,511
1,1,1,0,0,490,509
2,1,1,0,0,488,511
3,1,1,0,0,486,510
4,1,1,0,0,483,513
5,1,1,0,0,479,512
6,1,1,0,0,475,511
7,1,1,0,0,470,514
8,1,1,0,0,466,510
9,1,1,0,0,462,512
10,1,1,0,0,459,512
11,1,1,0,0,458,510
12,1,1,0,0,457,511
13,1,1,0,0,456,511
14,1,1,0,0,456,511
15,1,1,0,0,457,508
0,1,1,0,0,459,510
1,1,1,0,0,460,512
2,1,1,0,0,460,512
3,1,1,0,0,461,514
4,1,1,0,0,461,508
5,1,1,0,0,462,510
6,1,1,0,0,461,510
7,1,1,0,0,460,514
8,1,1,0,0,460,511
9,1,1,0,0,460,513
10,1,1,0,0,459,512
11,1,1,0,0,459,512
12,1,1,0,0,460,512
13,1,1,0,0,460,512
14,1,1,0,0,460,513
15,1,1,0,0,460,511
0,1,1,0,0,460,512
1,1,1,0,0,460,513
2,1,1,0,0,460,512
3,1,1,0,0,459,517
4,1,1,0,0,457,512
5,1,1,0,0,455,514
6,1,1,0,0,454,512
7,1,1,0,0,452,515
8,1,1,0,0,452,510
9,1,1,0,0,452,513
10,1,1,0,0,453,516
11,1,1,0,0,454,514
12,1,1,0,0,455,514
13,1,1,0,0,456,514
14,1,1,0,0,456,513
15,1,1,0,0,457,515
0,1,1,0,0,459,514
1,1,1,0,0,460,516
2,1,1,0,0,461,515
3,1,1,0,0,461,513
4,1,1,0,0,462,516
5,1,1,0,0,463,514
6,1,1,0,0,464,517
7,1,1,0,0,465,515
8,1,1,0,0,467,513
9,1,1,0,0,468,517
10,1,1,0,0,470,515
11,1,1,0,0,472,514
12,1,1,0,0,475,515
13,1,1,0,0,478,513
14,1,1,0,0,480,514
15,1,1,0,0,481,514
0,1,1,0,0,482,517
1,1,1,0,0,482,512
2,1,1,0,0,481,514
3,1,1,0,0,480,515
4,1,1,0,0,480,514
5,1,1,0,0,479,517
6,1,1,0,0,478,515
7,1,1,0,0,476,514
8,1,1,0,0,475,518
9,1,1,0,0,473,514
10,1,1,0,0,473,515
11,1,1,0,0,474,515
12,1,1,0,0,475,513
13,1,1,0,0,477,515
14,1,1,0,0,479,515
15,1,1,0,0,482,517
0,1,1,0,0,485,511
1,1,1,0,0,486,514
2,1,1,0,0,487,515
3,1,1,0,0,486,516
4,1,1,0,0,485,518
5,1,1,0,0,484,512
6,1,1,0,0,483,514
7,1,1,0,0,481,518
8,1,1,0,0,479,515
9,1,1,0,0,478,517
10,1,1,0,0,475,511
11,1,1,0,0,473,515
12,1,1,0,0,473,514
13,1,1,0,0,473,514
14,1,1,0,0,473,516
15,1,1,0,0,474,511
0,1,1,0,0,475,513
1,1,1,0,0,476,514
2,1,1,0,0,477,515
3,1,1,0,0,479,516
4,1,1,0,0,480,511
5,1,1,0,0,480,513
6,1,1,0,0,481,516
7,1,1,0,0,481,513
8,1,1,0,0,482,516
9,1,1,0,0,483,511
10,1,1,0,0,483,514
11,1,1,0,0,482,515
12,1,1,0,0,480,513
13,1,1,0,0,480,515
14,1,1,0,0,479,510
15,1,1,0,0,480,512
0,1,1,0,0,481,513
1,1,1,0,0,482,514
2,1,1,0,0,483,516
3,1,1,0,0,484,511
4,1,1,0,0,486,512
5,1,1,0,0,488,514
6,1,1,0,0,491,514
7,1,1,0,0,493,515
8,1,1,0,0,495,509
9,1,1,0,0,498,513
10,1,1,0,0,498,514
11,1,1,0,0,499,512
12,1,1,0,0,500,514
13,1,1,0,0,500,508
14,1,1,0,0,499,511
15,1,1,0,0,499,512
0,1,1,0,0,499,513
1,1,1,0,0,497,514
2,1,1,0,0,495,509
3,1,1,0,0,494,511
4,1,1,0,0,494,512
5,1,1,0,0,495,513
6,1,1,0,0,496,514
7,1,1,0,0,498,508
8,1,1,0,0,500,512
9,1,1,0,0,503,512
10,1,1,0,0,506,509
11,1,1,0,0,509,512
12,1,1,0,0,513,508
13,1,1,0,0,516,510
14,1,1,0,0,518,512
15,1,1,0,0,518,512
0,1,1,0,0,518,514
1,1,1,0,0,517,508
2,1,1,0,0,515,511
3,1,1,0,0,512,512
4,1,1,0,0,509,513
5,1,1,0,0,507,515
6,1,1,0,0,504,508
7,1,1,0,0,503,512
8,1,1,0,0,502,512
9,1,1,0,0,501,511
10,1,1,0,0,500,509
11,1,1,0,0,499,514
12,1,1,0,0,500,510
13,1,1,0,0,503,510
14,1,1,0,0,505,512
15,1,1,0,0,507,511
0,1,1,0,0,509,516
1,1,1,0,0,512,511
2,1,1,0,0,513,510
3,1,1,0,0,515,513
4,1,1,0,0,516,511
5,1,1,0,0,515,516
6,1,1,0,0,514,511
7,1,1,0,0,513,511
8,1,1,0,0,511,514
9,1,1,0,0,510,511
10,1,1,0,0,510,516
11,1,1,0,0,510,512
12,1,1,0,0,510,511
13,1,1,0,0,510,513
14,1,1,0,0,510,512
15,1,1,0,0,510,515
0,1,1,0,0,509,512
1,1,1,0,0,508,511
2,1,1,0,0,508,514
3,1,1,0,0,508,513
4,1,1,0,0,508,517
5,1,1,0,0,508,513
6,1,1,0,0,508,512
7,1,1,0,0,508,514
8,1,1,0,0,507,513
9,1,1,0,0,505,514
10,1,1,0,0,504,515
11,1,1,0,0,504,514
12,1,1,0,0,503,512
13,1,1,0,0,503,512
14,1,1,0,0,504,509
15,1,1,0,0,504,511
0,1,1,0,0,505,513
1,1,1,0,0,506,513
2,1,1,0,0,507,514
3,1,1,0,0,507,509
4,1,1,0,0,509,511
5,1,1,0,0,510,511
6,1,1,0,0,511,514
7,1,1,0,0,511,511
8,1,1,0,0,511,513
9,1,1,0,0,511,511
10,1,1,0,0,512,513
11,1,1,0,0,512,511
12,1,1,0,0,512,510
13,1,1,0,0,513,511
14,1,1,0,0,513,510
15,1,1,0,0,513,511
0,1,1,0,0,513,510
1,1,1,0,0,513,513
2,1,1,0,0,513,511
3,1,1,0,0,513,509
4,1,1,0,0,513,510
5,1,1,0,0,514,511
6,1,1,0,0,515,512
7,1,1,0,0,517,511
8,1,1,0,0,518,510
9,1,1,0,0,517,513
10,1,1,0,0,516,509
11,1,1,0,0,515,512
12,1,1,0,0,516,511
13,1,1,0,0,516,509
14,1,1,0,0,517,511
15,1,1,0,0,517,510
0,1,1,0,0,517,510
1,1,1,0,0,516,511
2,1,1,0,0,515,509
3,1,1,0,0,515,511
4,1,1,0,0,514,511
5,1,1,0,0,513,510
6,1,1,0,0,512,513
7,1,1,0,0,511,510
8,1,1,0,0,510,511
9,1,1,0,0,510,510
10,1,1,0,0,510,510
11,1,1,0,0,511,510
12,1,1,0,0,511,508
13,1,1,0,0,511,510
14,1,1,0,0,510,510
15,1,1,0,0,511,510
0,1,1,0,0,512,506
1,1,1,0,0,513,508
2,1,1,0,0,513,510
3,1,1,0,0,513,510
4,1,1,0,0,513,509
5,1,1,0,0,514,513
6,1,1,0,0,515,511
7,1,1,0,0,515,508
8,1,1,0,0,515,511
9,1,1,0,0,514,508
10,1,1,0,0,513,509
11,1,1,0,0,512,509
12,1,1,0,0,512,508
13,1,1,0,0,510,508
14,1,1,0,0,509,510
15,1,1,0,0,508,509
0,1,1,0,0,508,507
1,1,1,0,0,508,509
2,1,1,0,0,509,509
3,1,1,0,0,509,508
4,1,1,0,0,509,512
5,1,1,0,0,510,508
6,1,1,0,0,509,508
7,1,1,0,0,509,511
8,1,1,0,0,508,508
9,1,1,0,0,508,510
10,1,1,0,0,507,507
11,1,1,0,0,507,508
12,1,1,0,0,506,508
13,1,1,0,0,506,508
14,1,1,0,0,505,509
15,1,1,0,0,505,507
0,1,1,0,0,506,509
1,1,1,0,0,506,508
2,1,1,0,0,507,511
3,1,1,0,0,508,505
4,1,1,0,0,508,508
5,1,1,0,0,508,509
6,1,1,0,0,508,508
7,1,1,0,0,507,511
8,1,1,0,0,508,510
9,1,1,0,0,508,513
10,1,1,0,0,508,511
11,1,1,0,0,507,509
12,1,1,0,0,507,509
13,1,1,0,0,508,510
14,1,1,0,0,508,508
15,1,1,0,0,508,509
0,1,1,0,0,507,509
1,1,1,0,0,507,511
2,1,1,0,0,507,510
3,1,1,0,0,505,508
4,1,1,0,0,505,511
5,1,1,0,0,504,513
6,1,1,0,0,504,510
7,1,1,0,0,503,511
8,1,1,0,0,504,509
9,1,1,0,0,505,511
10,1,1,0,0,505,510
11,1,1,0,0,506,510
12,1,1,0,0,506,510
13,1,1,0,0,506,509
14,1,1,0,0,506,510
15,1,1,0,0,507,510
0,1,1,0,0,507,510
1,1,1,0,0,507,507
2,1,1,0,0,507,509
3,1,1,0,0,507,510
4,1,1,0,0,508,511
5,1,1,0,0,508,510
6,1,1,0,0,508,514
7,1,1,0,0,509,512
8,1,1,0,0,511,509
9,1,1,0,0,513,513
10,1,1,0,0,515,510
11,1,1,0,0,517,511
12,1,1,0,0,519,509
13,1,1,0,0,521,511
14,1,1,0,0,523,511
15,1,1,0,0,525,511
0,1,1,0,0,526,507
1,1,1,0,0,527,510
2,1,1,0,0,527,509
3,1,1,0,0,526,513
4,1,1,0,0,525,511
5,1,1,0,0,524,510
6,1,1,0,0,523,511
7,1,1,0,0,523,512
8,1,1,0,0,524,512
9,1,1,0,0,524,512
10,1,1,0,0,524,512
11,1,1,0,0,524,512
12,1,1,0,0,524,511
13,1,1,0,0,525,511
14,1,1,0,0,525,513
15,1,1,0,0,524,511
0,1,1,0,0,523,510
1,1,1,0,0,522,511
2,1,1,0,0,521,512
3,1,1,0,0,522,513
4,1,1,0,0,522,512
5,1,1,0,0,522,510
6,1,1,0,0,521,515
7,1,1,0,0,521,510
8,1,1,0,0,520,513
9,1,1,0,0,519,511
10,1,1,0,0,517,510
11,1,1,0,0,515,512
12,1,1,0,0,514,510
13,1,1,0,0,512,510
14,1,1,0,0,510,511
15,1,1,0,0,509,509
0,1,1,0,0,508,511
1,1,1,0,0,508,511
2,1,1,0,0,509,513
3,1,1,0,0,509,508
4,1,1,0,0,511,511
5,1,1,0,0,512,511
6,1,1,0,0,513,510
7,1,1,0,0,513,513
8,1,1,0,0,514,511
9,1,1,0,0,513,515
10,1,1,0,0,512,513
11,1,1,0,0,510,511
12,1,1,0,0,508,513
13,1,1,0,0,505,509
14,1,1,0,0,503,511
15,1,1,0,0,501,511
0,1,1,0,0,500,511
1,1,1,0,0,499,511
2,1,1,0,0,499,512
3,1,1,0,0,499,510
4,1,1,0,0,500,512
5,1,1,0,0,501,512
6,1,1,0,0,503,511
7,1,1,0,0,505,513
8,1,1,0,0,508,511
9,1,1,0,0,511,510
10,1,1,0,0,512,514
11,1,1,0,0,514,511
12,1,1,0,0,515,512
13,1,1,0,0,517,510
14,1,1,0,0,516,511
15,1,1,0,0,514,511
0,1,1,0,0,512,511
1,1,1,0,0,510,508
2,1,1,0,0,508,510
3,1,1,0,0,505,510
4,1,1,0,0,504,513
5,1,1,0,0,502,511
6,1,1,0,0,501,513
7,1,1,0,0,501,512
8,1,1,0,0,502,513
9,1,1,0,0,504,511
10,1,1,0,0,505,511
11,1,1,0,0,507,511
12,1,1,0,0,510,510
13,1,1,0,0,511,511
14,1,1,0,0,511,511
15,1,1,0,0,512,513
0,1,1,0,0,512,512
1,1,1,0,0,512,510
2,1,1,0,0,511,512
3,1,1,0,0,510,511
4,1,1,0,0,508,513
5,1,1,0,0,507,512
6,1,1,0,0,506,510
7,1,1,0,0,505,515
8,1,1,0,0,505,509
9,1,1,0,0,504,513
10,1,1,0,0,504,510
11,1,1,0,0,503,510
12,1,1,0,0,503,511
13,1,1,0,0,502,511
14,1,1,0,0,502,510
15,1,1,0,0,503,512
0,1,1,0,0,503,510
1,1,1,0,0,504,511
2,1,1,0,0,506,510
3,1,1,0,0,508,513
4,1,1,0,0,510,513
5,1,1,0,0,511,510
6,1,1,0,0,512,510
7,1,1,0,0,512,512
8,1,1,0,0,512,511
9,1,1,0,0,512,512
10,1,1,0,0,512,513
11,1,1,0,0,512,512
12,1,1,0,0,512,510
13,1,1,0,0,513,510
14,1,1,0,0,515,507
15,1,1,0,0,517,509
0,1,1,0,0,518,511
1,1,1,0,0,518,511
2,1,1,0,0,518,513
3,1,1,0,0,516,507
4,1,1,0,0,516,510
5,1,1,0,0,516,509
6,1,1,0,0,516,513
7,1,1,0,0,519,509
8,1,1,0,0,524,512
9,1,1,0,0,531,511
10,1,1,0,0,539,511
11,1,1,0,0,547,510
12,1,1,0,0,556,510
13,1,1,0,0,563,511
14,1,1,0,0,569,510
15,1,1,0,0,574,511
0,1,1,0,0,575,511
1,1,1,0,0,576,510
2,1,1,0,0,575,507
3,1,1,0,0,574,509
4,1,1,0,0,574,511
5,1,1,0,0,575,511
6,1,1,0,0,575,510
7,1,1,0,0,578,514
8,1,1,0,0,580,512
9,1,1,0,0,583,509
10,1,1,0,0,583,513
11,1,1,0,0,583,510
12,1,1,0,0,580,512
13,1,1,0,0,577,509
14,1,1,0,0,571,511
15,1,1,0,0,562,510
0,1,1,0,0,551,510
1,1,1,0,0,543,507
2,1,1,0,0,536,510
3,1,1,0,0,528,511
4,1,1,0,0,520,511
5,1,1,0,0,511,512
6,1,1,0,0,505,507
7,1,1,0,0,499,510
8,1,1,0,0,492,511
9,1,1,0,0,477,511
10,1,1,0,0,458,512
11,1,1,0,0,433,505
12,1,1,0,0,404,509
13,1,1,0,0,372,510
14,1,1,0,0,339,510
15,1,1,0,0,311,512
0,1,1,0,0,293,506
1,1,1,0,0,283,508
2,1,1,0,0,276,510
3,1,1,0,0,272,511
4,1,1,0,0,268,512
5,1,1,0,0,263,507
6,1,1,0,0,256,511
7,1,1,0,0,254,511
8,1,1,0,0,256,509
9,1,1,0,0,263,510
10,1,1,0,0,273,505
11,1,1,0,0,284,508
12,1,1,0,0,296,507
13,1,1,0,0,312,508
14,1,1,0,0,331,507
15,1,1,0,0,352,509
0,1,1,0,0,375,508
1,1,1,0,0,397,508
2,1,1,0,0,418,509
3,1,1,0,0,437,511
4,1,1,0,0,454,505
5,1,1,0,0,472,508
6,1,1,0,0,486,511
7,1,1,0,0,498,509
8,1,1,0,0,508,510
9,1,1,0,0,515,504
10,1,1,0,0,522,508
11,1,1,0,0,527,508
12,1,1,0,0,531,507
13,1,1,0,0,533,509
14,1,1,0,0,535,504
15,1,1,0,0,538,505
0,1,1,0,0,541,507
1,1,1,0,0,543,508
2,1,1,0,0,546,509
3,1,1,0,0,548,504
4,1,1,0,0,550,507
5,1,1,0,0,553,506
6,1,1,0,0,557,511
7,1,1,0,0,560,507
8,1,1,0,0,563,511
9,1,1,0,0,566,509
10,1,1,0,0,568,506
11,1,1,0,0,567,510
12,1,1,0,0,564,507
13,1,1,0,0,560,512
14,1,1,0,0,557,507
15,1,1,0,0,553,507
0,1,1,0,0,549,509
1,1,1,0,0,546,508
2,1,1,0,0,544,512
3,1,1,0,0,544,508
4,1,1,0,0,545,507
5,1,1,0,0,545,510
6,1,1,0,0,546,510
7,1,1,0,0,547,509
8,1,1,0,0,549,510
9,1,1,0,0,551,508
10,1,1,0,0,553,510
11,1,1,0,0,554,510
12,1,1,0,0,555,511
13,1,1,0,0,555,509
14,1,1,0,0,555,511
15,1,1,0,0,554,510
0,1,1,0,0,553,513
1,1,1,0,0,553,511
2,1,1,0,0,552,510
3,1,1,0,0,553,511
4,1,1,0,0,554,511
5,1,1,0,0,556,513
6,1,1,0,0,559,511
7,1,1,0,0,561,510
8,1,1,0,0,562,514
9,1,1,0,0,563,510
10,1,1,0,0,561,513
11,1,1,0,0,560,508
12,1,1,0,0,557,511
13,1,1,0,0,555,512
14,1,1,0,0,554,510
15,1,1,0,0,553,510
0,1,1,0,0,553,512
1,1,1,0,0,552,509
2,1,1,0,0,551,510
3,1,1,0,0,551,511
4,1,1,0,0,551,510
5,1,1,0,0,551,515
6,1,1,0,0,551,510
7,1,1,0,0,550,511
8,1,1,0,0,549,512
9,1,1,0,0,548,510
10,1,1,0,0,547,512
11,1,1,0,0,546,511
12,1,1,0,0,545,511
13,1,1,0,0,546,510
14,1,1,0,0,547,510
15,1,1,0,0,547,511
0,1,1,0,0,547,509
1,1,1,0,0,549,511
2,1,1,0,0,550,511
3,1,1,0,0,551,510
4,1,1,0,0,551,514
5,1,1,0,0,551,510
6,1,1,0,0,552,509
7,1,1,0,0,553,512
8,1,1,0,0,553,510
9,1,1,0,0,553,512
10,1,1,0,0,554,509
11,1,1,0,0,554,511
12,1,1,0,0,554,510
13,1,1,0,0,554,510
14,1,1,0,0,553,511
15,1,1,0,0,552,509
0,1,1,0,0,552,511
1,1,1,0,0,551,510
2,1,1,0,0,551,513
3,1,1,0,0,552,507
4,1,1,0,0,554,510
5,1,1,0,0,554,511
6,1,1,0,0,555,510
7,1,1,0,0,556,512
8,1,1,0,0,557,511
9,1,1,0,0,558,513
10,1,1,0,0,558,512
11,1,1,0,0,556,510
12,1,1,0,0,555,510
13,1,1,0,0,553,510
14,1,1,0,0,552,509
15,1,1,0,0,551,510
0,1,1,0,0,551,509
1,1,1,0,0,551,512
2,1,1,0,0,552,511
3,1,1,0,0,552,508
4,1,1,0,0,555,511
5,1,1,0,0,556,511
6,1,1,0,0,556,510
7,1,1,0,0,556,512
8,1,1,0,0,555,510
9,1,1,0,0,552,511
10,1,1,0,0,550,511
11,1,1,0,0,547,510
12,1,1,0,0,545,511
13,1,1,0,0,544,509
14,1,1,0,0,543,510
15,1,1,0,0,543,511
0,1,1,0,0,543,510
1,1,1,0,0,542,507
2,1,1,0,0,541,509
3,1,1,0,0,540,511
4,1,1,0,0,540,510
5,1,1,0,0,541,510
6,1,1,0,0,542,511
7,1,1,0,0,544,512
8,1,1,0,0,546,508
9,1,1,0,0,547,512
10,1,1,0,0,547,509
11,1,1,0,0,547,511
12,1,1,0,0,547,509
13,1,1,0,0,547,510
14,1,1,0,0,547,510
15,1,1,0,0,546,511
0,1,1,0,0,547,506
1,1,1,0,0,548,509
2,1,1,0,0,549,508
3,1,1,0,0,550,512
4,1,1,0,0,551,511
5,1,1,0,0,551,508
6,1,1,0,0,551,509
7,1,1,0,0,552,511
8,1,1,0,0,552,511
9,1,1,0,0,553,510
10,1,1,0,0,553,511
11,1,1,0,0,556,511
12,1,1,0,0,557,510
13,1,1,0,0,558,509
14,1,1,0,0,558,511
15,1,1,0,0,558,510
0,1,1,0,0,558,508
1,1,1,0,0,558,510
2,1,1,0,0,558,510
3,1,1,0,0,558,512
4,1,1,0,0,557,511
5,1,1,0,0,556,509
6,1,1,0,0,556,512
7,1,1,0,0,556,508
8,1,1,0,0,556,511
9,1,1,0,0,556,508
10,1,1,0,0,556,508
11,1,1,0,0,556,510
12,1,1,0,0,557,508
13,1,1,0,0,557,508
14,1,1,0,0,557,509
15,1,1,0,0,558,507
0,1,1,0,0,558,508
1,1,1,0,0,560,509
2,1,1,0,0,560,511
3,1,1,0,0,561,510
4,1,1,0,0,560,508
5,1,1,0,0,561,510
6,1,1,0,0,561,508
7,1,1,0,0,563,510
8,1,1,0,0,566,506
9,1,1,0,0,568,509
10,1,1,0,0,567,509
11,1,1,0,0,565,508
12,1,1,0,0,562,508
13,1,1,0,0,558,510
14,1,1,0,0,555,507
15,1,1,0,0,551,509
0,1,1,0,0,547,509
1,1,1,0,0,544,508
2,1,1,0,0,541,505
3,1,1,0,0,539,508
4,1,1,0,0,538,509
5,1,1,0,0,539,509
6,1,1,0,0,539,508
7,1,1,0,0,538,512
8,1,1,0,0,537,511
9,1,1,0,0,536,507
10,1,1,0,0,535,511
11,1,1,0,0,535,508
12,1,1,0,0,536,510
13,1,1,0,0,536,508
14,1,1,0,0,535,509
15,1,1,0,0,533,509
0,1,1,0,0,531,510
1,1,1,0,0,528,506
2,1,1,0,0,527,509
3,1,1,0,0,524,507
4,1,1,0,0,522,512
5,1,1,0,0,518,509
6,1,1,0,0,514,512
7,1,1,0,0,510,511
8,1,1,0,0,507,512
9,1,1,0,0,504,510
10,1,1,0,0,501,509
11,1,1,0,0,498,511
12,1,1,0,0,496,509
13,1,1,0,0,493,511
14,1,1,0,0,491,511
15,1,1,0,0,488,512
0,1,1,0,0,487,507
1,1,1,0,0,485,509
2,1,1,0,0,483,511
3,1,1,0,0,482,511
4,1,1,0,0,481,513
5,1,1,0,0,480,507
6,1,1,0,0,479,511
7,1,1,0,0,477,513
8,1,1,0,0,476,511
9,1,1,0,0,473,512
10,1,1,0,0,471,507
11,1,1,0,0,470,510
12,1,1,0,0,470,510
13,1,1,0,0,470,510
14,1,1,0,0,470,512
15,1,1,0,0,470,507
0,1,1,0,0,469,509
1,1,1,0,0,468,511
2,1,1,0,0,468,511
3,1,1,0,0,468,513
4,1,1,0,0,469,508
5,1,1,0,0,470,511
6,1,1,0,0,471,514
7,1,1,0,0,471,510
8,1,1,0,0,469,513
9,1,1,0,0,468,512
10,1,1,0,0,467,510
11,1,1,0,0,466,514
12,1,1,0,0,464,509
13,1,1,0,0,462,513
14,1,1,0,0,462,513
15,1,1,0,0,463,511
0,1,1,0,0,463,513
1,1,1,0,0,464,511
2,1,1,0,0,465,515
3,1,1,0,0,467,515
4,1,1,0,0,468,513
5,1,1,0,0,470,514
6,1,1,0,0,471,513
7,1,1,0,0,472,514
8,1,1,0,0,473,515
9,1,1,0,0,473,518
10,1,1,0,0,473,516
11,1,1,0,0,472,514
12,1,1,0,0,471,514
13,1,1,0,0,470,515
14,1,1,0,0,468,513
15,1,1,0,0,467,515
0,1,1,0,0,465,514
1,1,1,0,0,464,517
2,1,1,0,0,465,516
3,1,1,0,0,465,514
4,1,1,0,0,465,517
5,1,1,0,0,466,517
6,1,1,0,0,467,515
7,1,1,0,0,467,517
8,1,1,0,0,468,515
9,1,1,0,0,468,517
10,1,1,0,0,468,517
11,1,1,0,0,470,518
12,1,1,0,0,472,517
13,1,1,0,0,472,515
14,1,1,0,0,475,516
15,1,1,0,0,476,516
0,1,1,0,0,477,516
1,1,1,0,0,478,517
2,1,1,0,0,477,515
3,1,1,0,0,476,518
4,1,1,0,0,474,519
5,1,1,0,0,473,516
6,1,1,0,0,471,518
7,1,1,0,0,471,517
8,1,1,0,0,470,517
9,1,1,0,0,468,516
10,1,1,0,0,467,516
11,1,1,0,0,467,516
12,1,1,0,0,469,515
13,1,1,0,0,471,517
14,1,1,0,0,473,516
15,1,1,0,0,473,516
0,1,1,0,0,473,513
