0,1,2,3,4,5,6
0,1,1,0,0,568,512
1,1,1,0,0,568,511
2,1,1,0,0,571,512
3,1,1,0,0,573,512
4,1,1,0,0,575,512
5,1,1,0,0,575,513
6,1,1,0,0,576,513
7,1,1,0,0,576,512
8,1,1,0,0,574,514
9,1,1,0,0,572,514
10,1,1,0,0,566,513
11,1,1,0,0,559,515
12,1,1,0,0,552,515
13,1,1,0,0,546,514
14,1,1,0,0,541,515
15,1,1,0,0,537,514
0,1,1,0,0,533,515
1,1,1,0,0,528,516
2,1,1,0,0,527,516
3,1,1,0,0,527,517
4,1,1,0,0,523,516
5,1,1,0,0,513,515
6,1,1,0,0,496,519
7,1,1,0,0,469,515
8,1,1,0,0,434,519
9,1,1,0,0,396,515
10,1,1,0,0,359,516
11,1,1,0,0,330,517
12,1,1,0,0,308,516
13,1,1,0,0,295,516
14,1,1,0,0,287,515
15,1,1,0,0,281,517
0,1,1,0,0,272,518
1,1,1,0,0,259,517
2,1,1,0,0,250,518
3,1,1,0,0,249,518
4,1,1,0,0,255,518
5,1,1,0,0,264,518
6,1,1,0,0,275,519
7,1,1,0,0,288,518
8,1,1,0,0,302,516
9,1,1,0,0,319,516
10,1,1,0,0,335,520
11,1,1,0,0,355,515
12,1,1,0,0,376,519
13,1,1,0,0,398,516
14,1,1,0,0,419,519
15,1,1,0,0,438,516
0,1,1,0,0,456,520
1,1,1,0,0,472,518
2,1,1,0,0,486,517
3,1,1,0,0,499,518
4,1,1,0,0,511,518
5,1,1,0,0,521,518
6,1,1,0,0,531,518
7,1,1,0,0,539,519
8,1,1,0,0,545,518
9,1,1,0,0,550,516
10,1,1,0,0,553,520
11,1,1,0,0,556,517
12,1,1,0,0,558,516
13,1,1,0,0,559,518
14,1,1,0,0,560,518
15,1,1,0,0,560,518
0,1,1,0,0,560,517
1,1,1,0,0,561,519
2,1,1,0,0,560,518
3,1,1,0,0,560,516
4,1,1,0,0,559,520
5,1,1,0,0,558,518
6,1,1,0,0,558,520
7,1,1,0,0,557,519
8,1,1,0,0,556,516
9,1,1,0,0,556,518
10,1,1,0,0,555,516
11,1,1,0,0,554,516
12,1,1,0,0,554,517
13,1,1,0,0,553,517
14,1,1,0,0,552,517
15,1,1,0,0,551,517
0,1,1,0,0,551,515
1,1,1,0,0,551,516
2,1,1,0,0,551,516
3,1,1,0,0,552,517
4,1,1,0,0,554,516
5,1,1,0,0,555,515
6,1,1,0,0,554,515
7,1,1,0,0,553,519
8,1,1,0,0,552,513
9,1,1,0,0,552,518
10,1,1,0,0,553,513
11,1,1,0,0,553,515
12,1,1,0,0,552,515
13,1,1,0,0,551,515
14,1,1,0,0,551,514
15,1,1,0,0,552,515
0,1,1,0,0,552,514
1,1,1,0,0,551,515
2,1,1,0,0,551,515
3,1,1,0,0,550,514
4,1,1,0,0,550,515
5,1,1,0,0,551,514
6,1,1,0,0,551,515
7,1,1,0,0,550,513
8,1,1,0,0,550,512
9,1,1,0,0,551,512
10,1,1,0,0,551,514
11,1,1,0,0,551,512
12,1,1,0,0,551,511
13,1,1,0,0,551,511
14,1,1,0,0,551,511
15,1,1,0,0,551,511
0,1,1,0,0,551,511
1,1,1,0,0,551,511
2,1,1,0,0,551,511
3,1,1,0,0,551,511
4,1,1,0,0,551,511
5,1,1,0,0,550,509
6,1,1,0,0,549,513
7,1,1,0,0,549,510
8,1,1,0,0,548,510
9,1,1,0,0,547,511
10,1,1,0,0,546,510
11,1,1,0,0,545,509
12,1,1,0,0,546,508
13,1,1,0,0,547,509
14,1,1,0,0,547,509
15,1,1,0,0,547,508
0,1,1,0,0,546,510
1,1,1,0,0,545,509
2,1,1,0,0,544,509
3,1,1,0,0,544,508
4,1,1,0,0,543,509
5,1,1,0,0,543,510
6,1,1,0,0,543,508
7,1,1,0,0,543,507
8,1,1,0,0,541,509
9,1,1,0,0,541,509
10,1,1,0,0,541,507
11,1,1,0,0,541,505
12,1,1,0,0,542,509
13,1,1,0,0,543,506
14,1,1,0,0,543,504
15,1,1,0,0,544,508
0,1,1,0,0,544,506
1,1,1,0,0,545,508
2,1,1,0,0,545,507
3,1,1,0,0,546,508
4,1,1,0,0,546,508
5,1,1,0,0,546,507
6,1,1,0,0,546,507
7,1,1,0,0,546,509
8,1,1,0,0,546,505
9,1,1,0,0,546,509
10,1,1,0,0,546,506
11,1,1,0,0,546,506
12,1,1,0,0,546,508
13,1,1,0,0,545,505
14,1,1,0,0,545,508
15,1,1,0,0,545,507
0,1,1,0,0,545,507
1,1,1,0,0,545,508
2,1,1,0,0,545,508
3,1,1,0,0,546,508
4,1,1,0,0,547,507
5,1,1,0,0,547,508
6,1,1,0,0,547,509
7,1,1,0,0,547,509
8,1,1,0,0,548,507
9,1,1,0,0,548,510
10,1,1,0,0,548,508
11,1,1,0,0,548,508
12,1,1,0,0,547,509
13,1,1,0,0,547,508
14,1,1,0,0,548,508
15,1,1,0,0,547,508
0,1,1,0,0,548,509
1,1,1,0,0,547,508
2,1,1,0,0,547,506
3,1,1,0,0,547,510
4,1,1,0,0,548,508
5,1,1,0,0,548,509
6,1,1,0,0,548,507
7,1,1,0,0,550,512
8,1,1,0,0,551,508
9,1,1,0,0,552,508
10,1,1,0,0,553,510
11,1,1,0,0,555,509
12,1,1,0,0,555,507
13,1,1,0,0,556,508
14,1,1,0,0,556,508
15,1,1,0,0,556,508
0,1,1,0,0,556,508
1,1,1,0,0,556,508
2,1,1,0,0,557,508
3,1,1,0,0,556,509
4,1,1,0,0,556,508
5,1,1,0,0,556,506
6,1,1,0,0,556,511
7,1,1,0,0,556,507
8,1,1,0,0,556,510
9,1,1,0,0,556,509
10,1,1,0,0,556,506
11,1,1,0,0,557,508
12,1,1,0,0,557,507
13,1,1,0,0,558,506
14,1,1,0,0,558,508
15,1,1,0,0,558,508
0,1,1,0,0,557,508
1,1,1,0,0,557,508
2,1,1,0,0,557,507
3,1,1,0,0,556,508
4,1,1,0,0,557,508
5,1,1,0,0,557,508
6,1,1,0,0,556,508
7,1,1,0,0,557,508
8,1,1,0,0,556,507
9,1,1,0,0,556,511
10,1,1,0,0,557,507
11,1,1,0,0,557,510
12,1,1,0,0,556,508
13,1,1,0,0,557,508
14,1,1,0,0,557,510
15,1,1,0,0,557,509
0,1,1,0,0,557,508
1,1,1,0,0,556,508
2,1,1,0,0,555,508
3,1,1,0,0,555,511
4,1,1,0,0,555,512
5,1,1,0,0,554,510
6,1,1,0,0,553,513
7,1,1,0,0,553,510
8,1,1,0,0,551,510
9,1,1,0,0,550,510
10,1,1,0,0,547,509
11,1,1,0,0,546,508
12,1,1,0,0,544,509
13,1,1,0,0,542,510
14,1,1,0,0,541,510
15,1,1,0,0,539,509
0,1,1,0,0,539,510
1,1,1,0,0,538,510
2,1,1,0,0,537,510
3,1,1,0,0,536,510
4,1,1,0,0,536,509
5,1,1,0,0,534,510
6,1,1,0,0,532,511
7,1,1,0,0,529,508
8,1,1,0,0,527,511
9,1,1,0,0,525,508
10,1,1,0,0,523,508
11,1,1,0,0,520,510
12,1,1,0,0,518,509
13,1,1,0,0,516,508
14,1,1,0,0,513,508
15,1,1,0,0,511,510
0,1,1,0,0,508,508
1,1,1,0,0,505,510
2,1,1,0,0,502,510
3,1,1,0,0,500,508
4,1,1,0,0,499,509
5,1,1,0,0,497,510
6,1,1,0,0,495,508
7,1,1,0,0,493,512
8,1,1,0,0,491,508
9,1,1,0,0,488,510
10,1,1,0,0,487,510
11,1,1,0,0,485,510
12,1,1,0,0,483,510
13,1,1,0,0,480,509
14,1,1,0,0,479,508
15,1,1,0,0,477,510
0,1,1,0,0,475,510
1,1,1,0,0,473,510
2,1,1,0,0,472,510
3,1,1,0,0,470,511
4,1,1,0,0,469,510
5,1,1,0,0,468,510
6,1,1,0,0,467,508
7,1,1,0,0,465,512
8,1,1,0,0,465,509
9,1,1,0,0,464,509
10,1,1,0,0,464,513
11,1,1,0,0,464,512
12,1,1,0,0,464,509
13,1,1,0,0,465,508
14,1,1,0,0,465,510
15,1,1,0,0,466,511
0,1,1,0,0,467,510
1,1,1,0,0,467,510
2,1,1,0,0,467,509
3,1,1,0,0,467,509
4,1,1,0,0,467,512
5,1,1,0,0,467,509
6,1,1,0,0,467,513
7,1,1,0,0,467,508
8,1,1,0,0,466,512
9,1,1,0,0,466,511
10,1,1,0,0,466,510
11,1,1,0,0,465,510
12,1,1,0,0,465,509
13,1,1,0,0,466,510
14,1,1,0,0,466,511
15,1,1,0,0,465,511
0,1,1,0,0,466,510
1,1,1,0,0,467,511
2,1,1,0,0,468,510
3,1,1,0,0,469,511
4,1,1,0,0,469,511
5,1,1,0,0,468,510
6,1,1,0,0,469,510
7,1,1,0,0,470,513
8,1,1,0,0,469,509
9,1,1,0,0,470,513
10,1,1,0,0,470,510
11,1,1,0,0,470,509
12,1,1,0,0,470,510
13,1,1,0,0,470,511
14,1,1,0,0,471,510
15,1,1,0,0,472,510
0,1,1,0,0,472,512
1,1,1,0,0,473,511
2,1,1,0,0,474,509
3,1,1,0,0,474,513
4,1,1,0,0,475,511
5,1,1,0,0,476,509
6,1,1,0,0,478,510
7,1,1,0,0,479,512
8,1,1,0,0,480,515
9,1,1,0,0,480,511
10,1,1,0,0,481,510
11,1,1,0,0,481,511
12,1,1,0,0,481,511
13,1,1,0,0,482,511
14,1,1,0,0,482,511
15,1,1,0,0,482,510
0,1,1,0,0,482,511
1,1,1,0,0,483,511
2,1,1,0,0,483,511
3,1,1,0,0,483,511
4,1,1,0,0,483,511
5,1,1,0,0,483,510
6,1,1,0,0,483,513
7,1,1,0,0,484,511
8,1,1,0,0,485,510
9,1,1,0,0,486,510
10,1,1,0,0,487,512
11,1,1,0,0,488,511
12,1,1,0,0,489,508
13,1,1,0,0,489,509
14,1,1,0,0,489,510
15,1,1,0,0,489,509
0,1,1,0,0,489,509
1,1,1,0,0,490,510
2,1,1,0,0,491,509
3,1,1,0,0,491,510
4,1,1,0,0,491,509
5,1,1,0,0,490,510
6,1,1,0,0,490,510
7,1,1,0,0,491,509
8,1,1,0,0,491,509
9,1,1,0,0,492,510
10,1,1,0,0,492,510
11,1,1,0,0,493,508
12,1,1,0,0,494,508
13,1,1,0,0,495,509
14,1,1,0,0,496,508
15,1,1,0,0,497,509
0,1,1,0,0,499,510
1,1,1,0,0,500,508
2,1,1,0,0,500,507
3,1,1,0,0,501,508
4,1,1,0,0,502,510
5,1,1,0,0,501,507
6,1,1,0,0,502,511
7,1,1,0,0,500,508
8,1,1,0,0,500,508
9,1,1,0,0,502,511
10,1,1,0,0,502,507
11,1,1,0,0,502,510
12,1,1,0,0,502,509
13,1,1,0,0,502,508
14,1,1,0,0,502,511
15,1,1,0,0,501,513
0,1,1,0,0,502,510
1,1,1,0,0,502,508
2,1,1,0,0,502,510
3,1,1,0,0,502,510
4,1,1,0,0,502,508
5,1,1,0,0,502,512
6,1,1,0,0,502,510
7,1,1,0,0,501,511
8,1,1,0,0,501,509
9,1,1,0,0,500,512
10,1,1,0,0,499,511
11,1,1,0,0,499,511
12,1,1,0,0,498,511
13,1,1,0,0,498,511
14,1,1,0,0,498,511
15,1,1,0,0,498,511
0,1,1,0,0,498,512
1,1,1,0,0,499,511
2,1,1,0,0,498,512
3,1,1,0,0,497,512
4,1,1,0,0,496,511
5,1,1,0,0,496,512
6,1,1,0,0,495,511
7,1,1,0,0,495,511
8,1,1,0,0,494,513
9,1,1,0,0,493,510
10,1,1,0,0,493,514
11,1,1,0,0,492,512
12,1,1,0,0,493,512
13,1,1,0,0,493,511
14,1,1,0,0,492,511
15,1,1,0,0,492,510
0,1,1,0,0,492,511
1,1,1,0,0,492,511
2,1,1,0,0,492,512
3,1,1,0,0,493,510
4,1,1,0,0,494,511
5,1,1,0,0,493,511
6,1,1,0,0,492,510
7,1,1,0,0,491,514
8,1,1,0,0,490,510
9,1,1,0,0,489,511
10,1,1,0,0,489,511
11,1,1,0,0,490,511
12,1,1,0,0,490,510
13,1,1,0,0,489,510
14,1,1,0,0,488,510
15,1,1,0,0,488,510
0,1,1,0,0,488,511
1,1,1,0,0,487,510
2,1,1,0,0,487,511
3,1,1,0,0,487,512
4,1,1,0,0,488,510
5,1,1,0,0,488,511
6,1,1,0,0,489,508
7,1,1,0,0,490,513
8,1,1,0,0,491,509
9,1,1,0,0,493,509
10,1,1,0,0,494,512
11,1,1,0,0,496,512
12,1,1,0,0,498,509
13,1,1,0,0,502,508
14,1,1,0,0,504,510
15,1,1,0,0,507,510
0,1,1,0,0,509,510
1,1,1,0,0,512,510
2,1,1,0,0,514,509
3,1,1,0,0,515,509
4,1,1,0,0,516,511
5,1,1,0,0,518,513
6,1,1,0,0,519,510
7,1,1,0,0,521,513
8,1,1,0,0,523,510
9,1,1,0,0,525,511
10,1,1,0,0,527,510
11,1,1,0,0,527,509
12,1,1,0,0,527,509
13,1,1,0,0,527,510
14,1,1,0,0,526,510
15,1,1,0,0,526,510
0,1,1,0,0,524,510
1,1,1,0,0,524,511
2,1,1,0,0,523,510
3,1,1,0,0,522,510
4,1,1,0,0,521,510
5,1,1,0,0,520,510
6,1,1,0,0,520,510
7,1,1,0,0,521,511
8,1,1,0,0,520,510
9,1,1,0,0,520,508
10,1,1,0,0,519,507
11,1,1,0,0,519,508
12,1,1,0,0,519,507
13,1,1,0,0,518,507
14,1,1,0,0,517,508
15,1,1,0,0,516,507
0,1,1,0,0,516,507
1,1,1,0,0,515,508
2,1,1,0,0,514,508
3,1,1,0,0,512,509
4,1,1,0,0,511,508
5,1,1,0,0,510,509
6,1,1,0,0,508,510
7,1,1,0,0,505,509
8,1,1,0,0,504,507
9,1,1,0,0,501,506
10,1,1,0,0,498,507
11,1,1,0,0,496,507
12,1,1,0,0,495,505
13,1,1,0,0,493,507
14,1,1,0,0,493,506
15,1,1,0,0,492,507
0,1,1,0,0,492,506
1,1,1,0,0,492,507
2,1,1,0,0,492,508
3,1,1,0,0,492,507
4,1,1,0,0,492,508
5,1,1,0,0,492,507
6,1,1,0,0,492,510
7,1,1,0,0,492,507
8,1,1,0,0,493,505
9,1,1,0,0,494,508
10,1,1,0,0,495,508
11,1,1,0,0,495,508
12,1,1,0,0,495,506
13,1,1,0,0,495,505
14,1,1,0,0,495,507
15,1,1,0,0,496,506
0,1,1,0,0,495,507
1,1,1,0,0,494,508
2,1,1,0,0,493,507
3,1,1,0,0,494,508
4,1,1,0,0,493,507
5,1,1,0,0,493,505
6,1,1,0,0,494,510
7,1,1,0,0,494,505
8,1,1,0,0,495,510
9,1,1,0,0,496,508
10,1,1,0,0,497,505
11,1,1,0,0,498,509
12,1,1,0,0,497,507
13,1,1,0,0,498,511
14,1,1,0,0,498,508
15,1,1,0,0,499,506
0,1,1,0,0,499,510
1,1,1,0,0,501,508
2,1,1,0,0,502,508
3,1,1,0,0,504,510
4,1,1,0,0,505,508
5,1,1,0,0,505,511
6,1,1,0,0,506,509
7,1,1,0,0,505,509
8,1,1,0,0,506,510
9,1,1,0,0,507,509
10,1,1,0,0,508,511
11,1,1,0,0,509,509
12,1,1,0,0,509,509
13,1,1,0,0,511,510
14,1,1,0,0,512,511
15,1,1,0,0,513,510
0,1,1,0,0,515,510
1,1,1,0,0,515,511
2,1,1,0,0,515,510
3,1,1,0,0,516,508
4,1,1,0,0,515,513
5,1,1,0,0,516,510
6,1,1,0,0,516,509
7,1,1,0,0,516,510
8,1,1,0,0,516,512
9,1,1,0,0,516,514
10,1,1,0,0,515,511
11,1,1,0,0,514,509
12,1,1,0,0,515,510
13,1,1,0,0,515,511
14,1,1,0,0,516,510
15,1,1,0,0,518,511
0,1,1,0,0,519,509
1,1,1,0,0,519,510
2,1,1,0,0,520,511
3,1,1,0,0,520,511
4,1,1,0,0,521,511
5,1,1,0,0,521,510
6,1,1,0,0,522,510
7,1,1,0,0,523,514
8,1,1,0,0,524,509
9,1,1,0,0,527,513
10,1,1,0,0,532,509
11,1,1,0,0,538,510
12,1,1,0,0,545,511
13,1,1,0,0,553,511
14,1,1,0,0,558,510
15,1,1,0,0,563,510
0,1,1,0,0,567,511
1,1,1,0,0,569,511
2,1,1,0,0,570,509
3,1,1,0,0,569,513
4,1,1,0,0,568,510
5,1,1,0,0,567,511
6,1,1,0,0,568,509
7,1,1,0,0,570,513
8,1,1,0,0,572,511
9,1,1,0,0,574,512
10,1,1,0,0,575,513
11,1,1,0,0,575,512
12,1,1,0,0,575,513
13,1,1,0,0,573,510
14,1,1,0,0,570,509
15,1,1,0,0,568,510
0,1,1,0,0,564,511
1,1,1,0,0,559,510
2,1,1,0,0,554,510
3,1,1,0,0,550,509
4,1,1,0,0,545,509
5,1,1,0,0,540,512
6,1,1,0,0,537,514
7,1,1,0,0,536,510
8,1,1,0,0,537,512
9,1,1,0,0,537,512
10,1,1,0,0,527,511
11,1,1,0,0,511,510
12,1,1,0,0,486,510
13,1,1,0,0,453,510
14,1,1,0,0,414,511
15,1,1,0,0,376,511
0,1,1,0,0,344,512
1,1,1,0,0,324,510
2,1,1,0,0,311,512
3,1,1,0,0,303,510
4,1,1,0,0,296,511
5,1,1,0,0,287,512
6,1,1,0,0,275,510
7,1,1,0,0,267,511
8,1,1,0,0,265,513
9,1,1,0,0,270,509
10,1,1,0,0,279,513
11,1,1,0,0,289,510
12,1,1,0,0,302,510
13,1,1,0,0,317,510
14,1,1,0,0,335,511
15,1,1,0,0,353,510
0,1,1,0,0,373,510
1,1,1,0,0,392,508
2,1,1,0,0,412,510
3,1,1,0,0,430,510
4,1,1,0,0,448,508
5,1,1,0,0,465,512
6,1,1,0,0,480,509
7,1,1,0,0,493,510
8,1,1,0,0,504,508
9,1,1,0,0,513,512
10,1,1,0,0,521,509
11,1,1,0,0,527,508
12,1,1,0,0,530,510
13,1,1,0,0,534,510
14,1,1,0,0,537,510
15,1,1,0,0,540,509
0,1,1,0,0,541,510
1,1,1,0,0,543,509
2,1,1,0,0,544,508
3,1,1,0,0,546,512
4,1,1,0,0,546,510
5,1,1,0,0,547,508
6,1,1,0,0,547,509
7,1,1,0,0,549,511
8,1,1,0,0,550,513
9,1,1,0,0,551,510
10,1,1,0,0,553,508
11,1,1,0,0,554,510
12,1,1,0,0,555,509
13,1,1,0,0,556,509
14,1,1,0,0,556,509
15,1,1,0,0,557,507
0,1,1,0,0,557,509
1,1,1,0,0,558,510
2,1,1,0,0,559,510
3,1,1,0,0,560,510
4,1,1,0,0,561,508
5,1,1,0,0,562,508
6,1,1,0,0,562,512
7,1,1,0,0,563,507
8,1,1,0,0,563,511
9,1,1,0,0,563,506
10,1,1,0,0,564,508
11,1,1,0,0,564,509
12,1,1,0,0,565,508
13,1,1,0,0,565,508
14,1,1,0,0,566,507
15,1,1,0,0,566,508
0,1,1,0,0,565,508
1,1,1,0,0,564,508
2,1,1,0,0,564,508
3,1,1,0,0,564,510
4,1,1,0,0,565,509
5,1,1,0,0,565,509
6,1,1,0,0,565,507
7,1,1,0,0,566,510
8,1,1,0,0,566,507
9,1,1,0,0,567,508
10,1,1,0,0,568,512
11,1,1,0,0,568,506
12,1,1,0,0,568,508
13,1,1,0,0,568,507
14,1,1,0,0,567,508
15,1,1,0,0,566,508
0,1,1,0,0,564,508
1,1,1,0,0,562,508
2,1,1,0,0,560,510
3,1,1,0,0,559,508
4,1,1,0,0,558,508
5,1,1,0,0,558,509
6,1,1,0,0,557,508
7,1,1,0,0,557,508
8,1,1,0,0,556,509
9,1,1,0,0,555,507
10,1,1,0,0,555,512
11,1,1,0,0,555,508
12,1,1,0,0,555,507
13,1,1,0,0,556,509
14,1,1,0,0,557,510
15,1,1,0,0,557,509
0,1,1,0,0,558,508
1,1,1,0,0,558,510
2,1,1,0,0,558,509
3,1,1,0,0,558,507
4,1,1,0,0,558,512
5,1,1,0,0,558,509
6,1,1,0,0,558,513
7,1,1,0,0,559,510
8,1,1,0,0,559,507
9,1,1,0,0,559,510
10,1,1,0,0,559,509
11,1,1,0,0,559,508
12,1,1,0,0,559,509
13,1,1,0,0,560,510
14,1,1,0,0,561,510
15,1,1,0,0,562,510
0,1,1,0,0,563,508
1,1,1,0,0,563,509
2,1,1,0,0,564,510
3,1,1,0,0,564,510
4,1,1,0,0,564,509
5,1,1,0,0,565,508
6,1,1,0,0,566,508
7,1,1,0,0,566,512
8,1,1,0,0,566,507
9,1,1,0,0,566,512
10,1,1,0,0,566,508
11,1,1,0,0,567,509
12,1,1,0,0,566,510
13,1,1,0,0,566,510
14,1,1,0,0,566,509
15,1,1,0,0,566,508
0,1,1,0,0,565,509
1,1,1,0,0,565,510
2,1,1,0,0,566,508
3,1,1,0,0,566,511
4,1,1,0,0,566,508
5,1,1,0,0,566,510
6,1,1,0,0,568,508
7,1,1,0,0,568,511
8,1,1,0,0,569,510
9,1,1,0,0,570,513
10,1,1,0,0,570,511
11,1,1,0,0,570,508
12,1,1,0,0,570,511
13,1,1,0,0,570,510
14,1,1,0,0,570,509
15,1,1,0,0,569,510
0,1,1,0,0,568,511
1,1,1,0,0,568,508
2,1,1,0,0,567,512
3,1,1,0,0,566,509
4,1,1,0,0,566,510
5,1,1,0,0,566,509
6,1,1,0,0,566,512
7,1,1,0,0,566,509
8,1,1,0,0,568,509
9,1,1,0,0,568,511
10,1,1,0,0,569,510
11,1,1,0,0,570,509
12,1,1,0,0,569,508
13,1,1,0,0,570,510
14,1,1,0,0,571,509
15,1,1,0,0,572,510
0,1,1,0,0,572,510
1,1,1,0,0,573,509
2,1,1,0,0,574,510
3,1,1,0,0,574,508
4,1,1,0,0,573,508
5,1,1,0,0,572,512
6,1,1,0,0,572,508
7,1,1,0,0,572,511
8,1,1,0,0,572,510
9,1,1,0,0,571,507
10,1,1,0,0,572,509
11,1,1,0,0,571,509
12,1,1,0,0,571,508
13,1,1,0,0,570,508
14,1,1,0,0,569,508
15,1,1,0,0,569,508
0,1,1,0,0,569,508
1,1,1,0,0,568,509
2,1,1,0,0,569,508
3,1,1,0,0,571,509
4,1,1,0,0,573,509
5,1,1,0,0,574,509
6,1,1,0,0,576,510
7,1,1,0,0,577,509
8,1,1,0,0,578,507
9,1,1,0,0,578,511
10,1,1,0,0,579,508
11,1,1,0,0,578,510
12,1,1,0,0,577,508
13,1,1,0,0,575,509
14,1,1,0,0,574,507
15,1,1,0,0,573,509
0,1,1,0,0,572,508
1,1,1,0,0,569,509
2,1,1,0,0,568,508
3,1,1,0,0,566,511
4,1,1,0,0,564,508
5,1,1,0,0,563,507
6,1,1,0,0,562,510
7,1,1,0,0,561,509
8,1,1,0,0,560,509
9,1,1,0,0,559,508
10,1,1,0,0,559,507
11,1,1,0,0,557,508
12,1,1,0,0,557,509
13,1,1,0,0,556,509
14,1,1,0,0,556,509
15,1,1,0,0,556,510
0,1,1,0,0,556,508
1,1,1,0,0,556,510
2,1,1,0,0,556,507
3,1,1,0,0,555,511
4,1,1,0,0,554,508
5,1,1,0,0,553,508
6,1,1,0,0,552,511
7,1,1,0,0,551,508
8,1,1,0,0,549,512
9,1,1,0,0,548,508
10,1,1,0,0,546,510
11,1,1,0,0,543,510
12,1,1,0,0,541,509
13,1,1,0,0,539,508
14,1,1,0,0,537,511
15,1,1,0,0,534,509
0,1,1,0,0,532,510
1,1,1,0,0,529,510
2,1,1,0,0,527,510
3,1,1,0,0,524,511
4,1,1,0,0,520,509
5,1,1,0,0,517,510
6,1,1,0,0,514,510
7,1,1,0,0,512,509
8,1,1,0,0,509,509
9,1,1,0,0,507,510
10,1,1,0,0,504,510
11,1,1,0,0,501,508
12,1,1,0,0,498,508
13,1,1,0,0,496,509
14,1,1,0,0,494,508
15,1,1,0,0,492,508
0,1,1,0,0,491,510
1,1,1,0,0,488,509
2,1,1,0,0,487,510
3,1,1,0,0,485,509
4,1,1,0,0,483,510
5,1,1,0,0,482,510
6,1,1,0,0,480,509
7,1,1,0,0,480,507
8,1,1,0,0,478,508
9,1,1,0,0,477,511
10,1,1,0,0,476,509
11,1,1,0,0,476,508
12,1,1,0,0,475,509
13,1,1,0,0,475,508
14,1,1,0,0,474,509
15,1,1,0,0,473,510
0,1,1,0,0,472,509
1,1,1,0,0,472,510
2,1,1,0,0,472,509
3,1,1,0,0,472,510
4,1,1,0,0,472,510
5,1,1,0,0,471,510
6,1,1,0,0,471,510
7,1,1,0,0,471,511
8,1,1,0,0,472,510
9,1,1,0,0,472,509
10,1,1,0,0,472,508
11,1,1,0,0,471,508
12,1,1,0,0,471,507
13,1,1,0,0,470,508
14,1,1,0,0,470,508
15,1,1,0,0,471,508
0,1,1,0,0,471,507
1,1,1,0,0,472,507
2,1,1,0,0,472,509
3,1,1,0,0,472,510
4,1,1,0,0,472,510
5,1,1,0,0,471,511
6,1,1,0,0,471,510
7,1,1,0,0,470,510
8,1,1,0,0,470,508
9,1,1,0,0,470,512
10,1,1,0,0,470,508
11,1,1,0,0,470,509
12,1,1,0,0,471,511
13,1,1,0,0,472,508
14,1,1,0,0,473,513
15,1,1,0,0,475,510
0,1,1,0,0,479,510
1,1,1,0,0,483,512
2,1,1,0,0,487,513
3,1,1,0,0,491,511
4,1,1,0,0,493,510
5,1,1,0,0,493,511
6,1,1,0,0,493,513
7,1,1,0,0,492,511
8,1,1,0,0,488,515
9,1,1,0,0,484,510
10,1,1,0,0,480,511
11,1,1,0,0,477,515
12,1,1,0,0,473,510
13,1,1,0,0,470,514
14,1,1,0,0,466,511
15,1,1,0,0,463,513
0,1,1,0,0,462,511
1,1,1,0,0,461,514
2,1,1,0,0,460,512
3,1,1,0,0,460,511
4,1,1,0,0,461,512
5,1,1,0,0,462,513
6,1,1,0,0,464,513
7,1,1,0,0,467,512
8,1,1,0,0,470,514
9,1,1,0,0,473,512
10,1,1,0,0,475,512
11,1,1,0,0,477,515
12,1,1,0,0,479,511
13,1,1,0,0,480,511
14,1,1,0,0,482,512
15,1,1,0,0,483,513
0,1,1,0,0,483,513
1,1,1,0,0,483,512
2,1,1,0,0,483,514
3,1,1,0,0,483,512
4,1,1,0,0,484,511
5,1,1,0,0,484,515
6,1,1,0,0,485,513
7,1,1,0,0,487,511
8,1,1,0,0,488,514
9,1,1,0,0,491,513
10,1,1,0,0,492,516
11,1,1,0,0,493,513
12,1,1,0,0,496,511
13,1,1,0,0,501,513
14,1,1,0,0,507,513
15,1,1,0,0,514,513
0,1,1,0,0,519,513
1,1,1,0,0,521,511
2,1,1,0,0,523,511
3,1,1,0,0,526,515
4,1,1,0,0,528,516
5,1,1,0,0,529,513
6,1,1,0,0,529,516
7,1,1,0,0,528,513
8,1,1,0,0,524,512
9,1,1,0,0,519,512
10,1,1,0,0,514,511
11,1,1,0,0,508,510
12,1,1,0,0,501,512
13,1,1,0,0,495,512
14,1,1,0,0,488,512
15,1,1,0,0,482,511
0,1,1,0,0,479,512
1,1,1,0,0,477,511
2,1,1,0,0,476,512
3,1,1,0,0,476,512
4,1,1,0,0,476,511
5,1,1,0,0,476,511
6,1,1,0,0,476,512
7,1,1,0,0,476,509
8,1,1,0,0,476,513
9,1,1,0,0,475,509
10,1,1,0,0,475,509
11,1,1,0,0,473,510
12,1,1,0,0,471,510
13,1,1,0,0,471,510
14,1,1,0,0,471,509
15,1,1,0,0,471,508
0,1,1,0,0,472,510
1,1,1,0,0,474,510
2,1,1,0,0,476,510
3,1,1,0,0,479,510
4,1,1,0,0,482,511
5,1,1,0,0,484,509
6,1,1,0,0,486,510
7,1,1,0,0,487,510
8,1,1,0,0,489,510
9,1,1,0,0,491,510
10,1,1,0,0,491,511
11,1,1,0,0,491,511
12,1,1,0,0,490,508
13,1,1,0,0,491,508
14,1,1,0,0,492,510
15,1,1,0,0,493,508
0,1,1,0,0,494,509
1,1,1,0,0,494,509
2,1,1,0,0,495,508
3,1,1,0,0,496,507
4,1,1,0,0,496,508
5,1,1,0,0,497,510
6,1,1,0,0,497,510
7,1,1,0,0,497,507
8,1,1,0,0,499,508
9,1,1,0,0,499,509
10,1,1,0,0,500,508
11,1,1,0,0,501,507
12,1,1,0,0,502,506
13,1,1,0,0,504,508
14,1,1,0,0,504,507
15,1,1,0,0,504,507
0,1,1,0,0,502,508
1,1,1,0,0,502,507
2,1,1,0,0,502,509
3,1,1,0,0,502,507
4,1,1,0,0,504,508
5,1,1,0,0,506,508
6,1,1,0,0,508,506
7,1,1,0,0,510,510
8,1,1,0,0,512,507
9,1,1,0,0,513,505
10,1,1,0,0,515,510
11,1,1,0,0,517,506
12,1,1,0,0,518,508
13,1,1,0,0,518,507
14,1,1,0,0,519,506
15,1,1,0,0,520,509
0,1,1,0,0,520,507
1,1,1,0,0,518,511
2,1,1,0,0,516,508
3,1,1,0,0,515,506
4,1,1,0,0,515,511
5,1,1,0,0,517,508
6,1,1,0,0,519,507
7,1,1,0,0,523,507
8,1,1,0,0,527,509
9,1,1,0,0,530,512
10,1,1,0,0,532,508
11,1,1,0,0,532,507
12,1,1,0,0,531,508
13,1,1,0,0,531,509
14,1,1,0,0,528,508
15,1,1,0,0,524,508
0,1,1,0,0,521,507
1,1,1,0,0,518,508
2,1,1,0,0,517,509
3,1,1,0,0,516,509
4,1,1,0,0,517,509
5,1,1,0,0,520,508
6,1,1,0,0,523,508
7,1,1,0,0,525,512
8,1,1,0,0,525,507
9,1,1,0,0,523,511
10,1,1,0,0,521,506
11,1,1,0,0,518,508
12,1,1,0,0,514,509
13,1,1,0,0,511,509
14,1,1,0,0,508,508
15,1,1,0,0,505,507
0,1,1,0,0,500,508
1,1,1,0,0,496,509
2,1,1,0,0,493,507
3,1,1,0,0,489,511
4,1,1,0,0,488,508
5,1,1,0,0,487,510
6,1,1,0,0,487,508
7,1,1,0,0,487,511
8,1,1,0,0,486,509
9,1,1,0,0,486,508
10,1,1,0,0,486,510
11,1,1,0,0,487,510
12,1,1,0,0,488,508
13,1,1,0,0,489,508
14,1,1,0,0,491,510
15,1,1,0,0,491,509
0,1,1,0,0,492,509
1,1,1,0,0,493,510
2,1,1,0,0,494,509
3,1,1,0,0,495,510
4,1,1,0,0,495,509
5,1,1,0,0,496,508
6,1,1,0,0,496,511
7,1,1,0,0,498,508
8,1,1,0,0,500,511
9,1,1,0,0,502,509
10,1,1,0,0,505,509
11,1,1,0,0,508,509
12,1,1,0,0,511,509
13,1,1,0,0,514,507
14,1,1,0,0,516,509
15,1,1,0,0,517,510
0,1,1,0,0,517,510
1,1,1,0,0,518,509
2,1,1,0,0,519,511
3,1,1,0,0,517,509
4,1,1,0,0,516,510
5,1,1,0,0,516,511
6,1,1,0,0,516,509
7,1,1,0,0,516,510
8,1,1,0,0,517,512
9,1,1,0,0,517,508
10,1,1,0,0,516,513
11,1,1,0,0,516,509
12,1,1,0,0,515,509
13,1,1,0,0,514,509
14,1,1,0,0,513,510
15,1,1,0,0,513,510
0,1,1,0,0,515,509
1,1,1,0,0,515,508
2,1,1,0,0,515,509
3,1,1,0,0,514,510
4,1,1,0,0,512,508
5,1,1,0,0,510,512
6,1,1,0,0,508,511
7,1,1,0,0,504,510
8,1,1,0,0,500,510
9,1,1,0,0,497,511
10,1,1,0,0,494,508
11,1,1,0,0,491,513
12,1,1,0,0,488,510
13,1,1,0,0,487,511
14,1,1,0,0,487,511
15,1,1,0,0,486,510
0,1,1,0,0,486,508
1,1,1,0,0,487,510
2,1,1,0,0,489,508
3,1,1,0,0,490,513
4,1,1,0,0,493,511
5,1,1,0,0,496,509
6,1,1,0,0,496,509
7,1,1,0,0,496,512
8,1,1,0,0,496,514
9,1,1,0,0,496,511
10,1,1,0,0,496,509
11,1,1,0,0,495,510
12,1,1,0,0,494,511
13,1,1,0,0,493,510
14,1,1,0,0,492,510
15,1,1,0,0,491,508
0,1,1,0,0,491,509
1,1,1,0,0,491,511
2,1,1,0,0,492,511
3,1,1,0,0,494,510
4,1,1,0,0,496,509
5,1,1,0,0,500,509
6,1,1,0,0,506,513
7,1,1,0,0,514,508
8,1,1,0,0,522,512
9,1,1,0,0,532,507
10,1,1,0,0,542,509
11,1,1,0,0,549,510
12,1,1,0,0,555,509
13,1,1,0,0,561,509
14,1,1,0,0,564,508
15,1,1,0,0,566,508
0,1,1,0,0,566,510
1,1,1,0,0,563,510
2,1,1,0,0,561,509
3,1,1,0,0,560,511
4,1,1,0,0,561,509
5,1,1,0,0,562,510
6,1,1,0,0,564,507
7,1,1,0,0,564,511
8,1,1,0,0,565,508
9,1,1,0,0,567,508
10,1,1,0,0,567,512
11,1,1,0,0,567,507
12,1,1,0,0,567,509
13,1,1,0,0,565,507
14,1,1,0,0,563,509
15,1,1,0,0,561,510
0,1,1,0,0,560,509
1,1,1,0,0,558,508
2,1,1,0,0,556,511
3,1,1,0,0,553,508
4,1,1,0,0,553,508
5,1,1,0,0,553,512
6,1,1,0,0,550,509
7,1,1,0,0,539,508
8,1,1,0,0,521,509
9,1,1,0,0,497,512
10,1,1,0,0,463,512
11,1,1,0,0,424,508
12,1,1,0,0,386,507
13,1,1,0,0,357,509
14,1,1,0,0,339,510
15,1,1,0,0,329,509
0,1,1,0,0,322,509
1,1,1,0,0,315,508
2,1,1,0,0,304,508
3,1,1,0,0,293,511
4,1,1,0,0,286,513
5,1,1,0,0,286,509
6,1,1,0,0,294,513
7,1,1,0,0,303,510
8,1,1,0,0,313,511
9,1,1,0,0,326,511
10,1,1,0,0,342,509
11,1,1,0,0,358,507
12,1,1,0,0,376,508
13,1,1,0,0,395,510
14,1,1,0,0,414,510
15,1,1,0,0,434,509
0,1,1,0,0,452,510
1,1,1,0,0,471,509
2,1,1,0,0,489,510
3,1,1,0,0,504,510
4,1,1,0,0,517,510
5,1,1,0,0,528,511
6,1,1,0,0,538,510
7,1,1,0,0,548,510
8,1,1,0,0,556,509
9,1,1,0,0,561,507
10,1,1,0,0,567,509
11,1,1,0,0,572,508
12,1,1,0,0,575,507
13,1,1,0,0,577,508
14,1,1,0,0,579,507
15,1,1,0,0,579,509
0,1,1,0,0,578,507
1,1,1,0,0,578,508
2,1,1,0,0,579,509
3,1,1,0,0,579,508
4,1,1,0,0,581,510
5,1,1,0,0,583,508
6,1,1,0,0,588,509
7,1,1,0,0,592,505
8,1,1,0,0,594,510
9,1,1,0,0,595,509
10,1,1,0,0,594,509
11,1,1,0,0,595,509
12,1,1,0,0,595,508
13,1,1,0,0,592,507
14,1,1,0,0,587,509
15,1,1,0,0,583,507
0,1,1,0,0,579,509
1,1,1,0,0,575,508
2,1,1,0,0,572,508
3,1,1,0,0,568,510
4,1,1,0,0,566,508
5,1,1,0,0,563,509
6,1,1,0,0,563,509
7,1,1,0,0,565,508
8,1,1,0,0,567,508
9,1,1,0,0,570,508
10,1,1,0,0,572,509
11,1,1,0,0,575,507
12,1,1,0,0,577,507
13,1,1,0,0,579,509
14,1,1,0,0,581,507
15,1,1,0,0,582,508
0,1,1,0,0,583,508
1,1,1,0,0,583,507
2,1,1,0,0,584,509
3,1,1,0,0,583,508
4,1,1,0,0,583,510
5,1,1,0,0,584,509
6,1,1,0,0,583,507
7,1,1,0,0,582,506
8,1,1,0,0,581,506
9,1,1,0,0,582,511
10,1,1,0,0,582,508
11,1,1,0,0,583,506
12,1,1,0,0,584,508
13,1,1,0,0,586,507
14,1,1,0,0,588,506
15,1,1,0,0,590,510
0,1,1,0,0,592,508
1,1,1,0,0,594,511
2,1,1,0,0,598,509
3,1,1,0,0,601,508
4,1,1,0,0,603,512
5,1,1,0,0,604,509
6,1,1,0,0,605,511
7,1,1,0,0,606,510
8,1,1,0,0,607,509
9,1,1,0,0,605,513
10,1,1,0,0,603,509
11,1,1,0,0,600,513
12,1,1,0,0,597,510
13,1,1,0,0,594,509
14,1,1,0,0,591,513
15,1,1,0,0,588,510
0,1,1,0,0,586,514
1,1,1,0,0,584,511
2,1,1,0,0,584,510
3,1,1,0,0,583,514
4,1,1,0,0,582,511
5,1,1,0,0,582,510
6,1,1,0,0,580,511
7,1,1,0,0,579,513
8,1,1,0,0,577,515
9,1,1,0,0,575,511
10,1,1,0,0,572,510
11,1,1,0,0,569,511
12,1,1,0,0,567,511
13,1,1,0,0,564,511
14,1,1,0,0,560,511
15,1,1,0,0,558,509
0,1,1,0,0,557,511
1,1,1,0,0,556,511
2,1,1,0,0,556,512
3,1,1,0,0,556,511
4,1,1,0,0,556,510
5,1,1,0,0,556,510
6,1,1,0,0,556,513
7,1,1,0,0,556,509
8,1,1,0,0,557,513
9,1,1,0,0,558,509
10,1,1,0,0,559,510
11,1,1,0,0,559,511
12,1,1,0,0,559,511
13,1,1,0,0,560,510
14,1,1,0,0,561,508
15,1,1,0,0,561,510
0,1,1,0,0,560,510
1,1,1,0,0,560,511
2,1,1,0,0,560,510
3,1,1,0,0,560,512
4,1,1,0,0,560,510
5,1,1,0,0,561,511
6,1,1,0,0,561,508
7,1,1,0,0,561,513
8,1,1,0,0,563,508
9,1,1,0,0,564,509
10,1,1,0,0,568,513
11,1,1,0,0,570,508
12,1,1,0,0,572,510
13,1,1,0,0,572,511
14,1,1,0,0,574,509
15,1,1,0,0,574,510
0,1,1,0,0,574,511
1,1,1,0,0,573,510
2,1,1,0,0,573,508
3,1,1,0,0,572,509
4,1,1,0,0,573,512
5,1,1,0,0,573,513
6,1,1,0,0,574,510
7,1,1,0,0,576,508
8,1,1,0,0,577,510
9,1,1,0,0,578,510
10,1,1,0,0,579,513
11,1,1,0,0,580,509
12,1,1,0,0,580,508
13,1,1,0,0,579,510
14,1,1,0,0,582,511
15,1,1,0,0,584,511
0,1,1,0,0,587,510
1,1,1,0,0,587,511
2,1,1,0,0,588,509
3,1,1,0,0,589,508
4,1,1,0,0,589,513
5,1,1,0,0,588,511
6,1,1,0,0,585,515
7,1,1,0,0,583,511
8,1,1,0,0,580,508
9,1,1,0,0,578,511
10,1,1,0,0,575,510
11,1,1,0,0,575,508
12,1,1,0,0,576,510
13,1,1,0,0,578,511
14,1,1,0,0,581,510
15,1,1,0,0,583,510
0,1,1,0,0,583,508
1,1,1,0,0,583,510
2,1,1,0,0,583,511
3,1,1,0,0,582,511
4,1,1,0,0,579,510
5,1,1,0,0,577,509
6,1,1,0,0,575,509
7,1,1,0,0,570,513
8,1,1,0,0,565,507
9,1,1,0,0,562,513
10,1,1,0,0,560,508
11,1,1,0,0,559,510
12,1,1,0,0,559,510
13,1,1,0,0,560,510
14,1,1,0,0,561,510
15,1,1,0,0,563,508
0,1,1,0,0,565,510
1,1,1,0,0,568,510
2,1,1,0,0,571,508
3,1,1,0,0,573,512
4,1,1,0,0,577,509
5,1,1,0,0,579,511
6,1,1,0,0,581,509
7,1,1,0,0,584,512
8,1,1,0,0,585,511
9,1,1,0,0,586,509
10,1,1,0,0,587,511
11,1,1,0,0,587,511
12,1,1,0,0,586,510
13,1,1,0,0,586,510
14,1,1,0,0,584,511
15,1,1,0,0,582,509
0,1,1,0,0,580,510
1,1,1,0,0,578,511
2,1,1,0,0,574,510
3,1,1,0,0,571,512
4,1,1,0,0,567,510
5,1,1,0,0,563,509
6,1,1,0,0,561,513
7,1,1,0,0,559,509
8,1,1,0,0,557,512
9,1,1,0,0,557,510
10,1,1,0,0,557,510
11,1,1,0,0,558,511
12,1,1,0,0,559,510
13,1,1,0,0,559,508
14,1,1,0,0,558,509
15,1,1,0,0,555,510
0,1,1,0,0,551,511
1,1,1,0,0,547,510
2,1,1,0,0,542,511
3,1,1,0,0,536,509
4,1,1,0,0,528,511
5,1,1,0,0,520,510
6,1,1,0,0,515,510
7,1,1,0,0,510,510
8,1,1,0,0,505,512
9,1,1,0,0,502,508
10,1,1,0,0,497,513
11,1,1,0,0,492,508
12,1,1,0,0,487,509
13,1,1,0,0,481,509
14,1,1,0,0,476,510
15,1,1,0,0,472,510
0,1,1,0,0,467,509
1,1,1,0,0,462,511
2,1,1,0,0,457,509
3,1,1,0,0,452,510
4,1,1,0,0,449,510
5,1,1,0,0,448,509
6,1,1,0,0,448,509
7,1,1,0,0,449,510
8,1,1,0,0,449,508
9,1,1,0,0,450,512
10,1,1,0,0,454,509
11,1,1,0,0,457,508
12,1,1,0,0,459,510
13,1,1,0,0,460,511
14,1,1,0,0,460,510
15,1,1,0,0,460,510
0,1,1,0,0,459,511
1,1,1,0,0,456,510
2,1,1,0,0,454,508
3,1,1,0,0,452,513
4,1,1,0,0,451,510
5,1,1,0,0,449,508
6,1,1,0,0,448,510
7,1,1,0,0,448,511
8,1,1,0,0,447,514
9,1,1,0,0,448,511
10,1,1,0,0,448,509
11,1,1,0,0,449,510
12,1,1,0,0,450,511
13,1,1,0,0,452,510
14,1,1,0,0,453,509
15,1,1,0,0,454,508
0,1,1,0,0,455,509
1,1,1,0,0,456,510
2,1,1,0,0,459,511
3,1,1,0,0,462,510
4,1,1,0,0,465,508
5,1,1,0,0,466,509
6,1,1,0,0,468,512
7,1,1,0,0,469,508
8,1,1,0,0,471,512
9,1,1,0,0,473,507
10,1,1,0,0,476,509
11,1,1,0,0,477,510
12,1,1,0,0,478,509
13,1,1,0,0,477,508
14,1,1,0,0,476,508
15,1,1,0,0,476,508
0,1,1,0,0,475,509
1,1,1,0,0,474,509
2,1,1,0,0,472,509
3,1,1,0,0,469,511
4,1,1,0,0,467,510
5,1,1,0,0,465,510
6,1,1,0,0,463,507
7,1,1,0,0,462,511
8,1,1,0,0,462,508
9,1,1,0,0,462,509
10,1,1,0,0,463,512
11,1,1,0,0,464,507
12,1,1,0,0,465,510
13,1,1,0,0,467,507
14,1,1,0,0,469,509
15,1,1,0,0,470,510
0,1,1,0,0,472,510
1,1,1,0,0,473,510
2,1,1,0,0,473,511
3,1,1,0,0,474,509
4,1,1,0,0,475,508
5,1,1,0,0,475,512
6,1,1,0,0,474,510
7,1,1,0,0,474,508
8,1,1,0,0,475,509
9,1,1,0,0,475,512
10,1,1,0,0,475,512
11,1,1,0,0,474,509
12,1,1,0,0,472,508
13,1,1,0,0,469,509
14,1,1,0,0,467,511
15,1,1,0,0,467,510
0,1,1,0,0,466,510
1,1,1,0,0,465,508
2,1,1,0,0,465,509
3,1,1,0,0,467,512
4,1,1,0,0,468,514
5,1,1,0,0,471,510
6,1,1,0,0,472,513
7,1,1,0,0,473,511
8,1,1,0,0,475,511
9,1,1,0,0,476,511
10,1,1,0,0,477,510
11,1,1,0,0,478,508
12,1,1,0,0,479,509
13,1,1,0,0,480,510
14,1,1,0,0,481,510
15,1,1,0,0,483,509
0,1,1,0,0,484,511
1,1,1,0,0,484,509
2,1,1,0,0,486,511
3,1,1,0,0,487,511
4,1,1,0,0,486,510
5,1,1,0,0,487,510
6,1,1,0,0,489,511
7,1,1,0,0,489,508
8,1,1,0,0,490,512
9,1,1,0,0,490,508
10,1,1,0,0,490,510
11,1,1,0,0,490,509
12,1,1,0,0,491,509
13,1,1,0,0,492,510
14,1,1,0,0,492,509
15,1,1,0,0,493,507
0,1,1,0,0,493,508
1,1,1,0,0,493,509
2,1,1,0,0,493,510
3,1,1,0,0,492,508
4,1,1,0,0,492,508
5,1,1,0,0,493,509
6,1,1,0,0,494,508
7,1,1,0,0,496,512
8,1,1,0,0,498,508
9,1,1,0,0,499,508
10,1,1,0,0,499,509
11,1,1,0,0,500,510
12,1,1,0,0,501,510
13,1,1,0,0,501,509
14,1,1,0,0,502,507
15,1,1,0,0,501,508
0,1,1,0,0,500,510
1,1,1,0,0,499,510
2,1,1,0,0,499,509
3,1,1,0,0,500,511
4,1,1,0,0,500,509
5,1,1,0,0,500,510
6,1,1,0,0,501,508
7,1,1,0,0,503,513
8,1,1,0,0,504,508
9,1,1,0,0,507,508
10,1,1,0,0,510,512
11,1,1,0,0,514,513
12,1,1,0,0,519,509
13,1,1,0,0,523,511
14,1,1,0,0,526,509
15,1,1,0,0,527,510
0,1,1,0,0,528,510
1,1,1,0,0,528,510
2,1,1,0,0,527,512
3,1,1,0,0,524,510
4,1,1,0,0,519,511
5,1,1,0,0,513,511
6,1,1,0,0,508,509
7,1,1,0,0,503,510
8,1,1,0,0,497,510
9,1,1,0,0,493,511
10,1,1,0,0,489,509
11,1,1,0,0,487,507
12,1,1,0,0,487,509
13,1,1,0,0,487,508
14,1,1,0,0,488,509
15,1,1,0,0,489,509
0,1,1,0,0,491,508
1,1,1,0,0,492,511
2,1,1,0,0,494,509
3,1,1,0,0,497,508
4,1,1,0,0,500,512
5,1,1,0,0,503,510
6,1,1,0,0,505,510
7,1,1,0,0,506,510
8,1,1,0,0,507,511
9,1,1,0,0,508,509
10,1,1,0,0,508,507
11,1,1,0,0,509,508
12,1,1,0,0,511,507
13,1,1,0,0,512,508
14,1,1,0,0,514,509
15,1,1,0,0,518,508
0,1,1,0,0,522,509
1,1,1,0,0,525,508
2,1,1,0,0,527,509
3,1,1,0,0,528,510
4,1,1,0,0,529,509
5,1,1,0,0,529,511
6,1,1,0,0,529,509
7,1,1,0,0,529,510
8,1,1,0,0,529,508
9,1,1,0,0,529,507
10,1,1,0,0,529,508
11,1,1,0,0,529,508
12,1,1,0,0,529,505
13,1,1,0,0,529,509
14,1,1,0,0,531,507
15,1,1,0,0,531,509
0,1,1,0,0,532,507
1,1,1,0,0,532,508
2,1,1,0,0,532,509
3,1,1,0,0,532,508
4,1,1,0,0,531,510
5,1,1,0,0,532,508
6,1,1,0,0,532,510
7,1,1,0,0,532,510
8,1,1,0,0,532,508
9,1,1,0,0,531,509
10,1,1,0,0,531,508
11,1,1,0,0,529,509
12,1,1,0,0,527,508
13,1,1,0,0,526,507
14,1,1,0,0,525,509
15,1,1,0,0,524,507
0,1,1,0,0,521,508
1,1,1,0,0,519,508
2,1,1,0,0,517,508
3,1,1,0,0,516,510
4,1,1,0,0,515,508
5,1,1,0,0,515,508
6,1,1,0,0,514,507
7,1,1,0,0,514,512
8,1,1,0,0,514,510
9,1,1,0,0,513,510
10,1,1,0,0,514,510
11,1,1,0,0,514,509
12,1,1,0,0,514,508
13,1,1,0,0,514,510
14,1,1,0,0,513,508
15,1,1,0,0,514,510
0,1,1,0,0,514,510
1,1,1,0,0,513,508
2,1,1,0,0,514,511
3,1,1,0,0,514,509
4,1,1,0,0,514,510
5,1,1,0,0,514,508
6,1,1,0,0,515,512
7,1,1,0,0,516,508
8,1,1,0,0,515,508
9,1,1,0,0,516,513
10,1,1,0,0,516,508
11,1,1,0,0,518,512
12,1,1,0,0,519,508
13,1,1,0,0,520,510
14,1,1,0,0,520,512
15,1,1,0,0,520,509
0,1,1,0,0,520,513
1,1,1,0,0,519,510
2,1,1,0,0,518,511
3,1,1,0,0,515,512
4,1,1,0,0,515,510
5,1,1,0,0,515,514
6,1,1,0,0,514,511
7,1,1,0,0,513,511
8,1,1,0,0,511,514
9,1,1,0,0,509,510
10,1,1,0,0,507,515
11,1,1,0,0,505,510
12,1,1,0,0,505,511
13,1,1,0,0,504,514
14,1,1,0,0,505,511
15,1,1,0,0,506,515
0,1,1,0,0,507,512
1,1,1,0,0,508,512
2,1,1,0,0,509,514
3,1,1,0,0,511,516
4,1,1,0,0,513,513
5,1,1,0,0,515,511
6,1,1,0,0,515,512
7,1,1,0,0,516,513
8,1,1,0,0,518,513
9,1,1,0,0,518,512
10,1,1,0,0,519,511
11,1,1,0,0,518,511
12,1,1,0,0,519,514
13,1,1,0,0,519,516
14,1,1,0,0,519,513
15,1,1,0,0,519,512
0,1,1,0,0,519,513
1,1,1,0,0,519,514
2,1,1,0,0,520,511
3,1,1,0,0,521,515
4,1,1,0,0,523,512
5,1,1,0,0,524,513
6,1,1,0,0,526,512
7,1,1,0,0,528,515
8,1,1,0,0,528,513
9,1,1,0,0,530,512
10,1,1,0,0,532,512
11,1,1,0,0,534,513
12,1,1,0,0,537,512
13,1,1,0,0,541,511
14,1,1,0,0,547,513
15,1,1,0,0,555,510
0,1,1,0,0,561,512
1,1,1,0,0,566,512
2,1,1,0,0,572,511
3,1,1,0,0,577,512
4,1,1,0,0,581,511
5,1,1,0,0,585,510
6,1,1,0,0,589,513
7,1,1,0,0,591,510
8,1,1,0,0,591,512
9,1,1,0,0,589,510
10,1,1,0,0,588,511
11,1,1,0,0,589,511
12,1,1,0,0,591,510
13,1,1,0,0,592,509
14,1,1,0,0,591,510
15,1,1,0,0,591,511
0,1,1,0,0,590,511
1,1,1,0,0,586,510
2,1,1,0,0,579,512
3,1,1,0,0,572,510
4,1,1,0,0,564,510
5,1,1,0,0,554,511
6,1,1,0,0,544,510
7,1,1,0,0,536,511
8,1,1,0,0,529,511
9,1,1,0,0,524,511
10,1,1,0,0,520,510
11,1,1,0,0,516,508
12,1,1,0,0,508,512
13,1,1,0,0,494,508
14,1,1,0,0,477,509
15,1,1,0,0,458,509
0,1,1,0,0,435,509
1,1,1,0,0,404,507
2,1,1,0,0,371,508
3,1,1,0,0,343,507
4,1,1,0,0,320,511
5,1,1,0,0,301,510
6,1,1,0,0,286,508
7,1,1,0,0,276,509
8,1,1,0,0,269,510
9,1,1,0,0,259,507
10,1,1,0,0,248,511
11,1,1,0,0,242,506
12,1,1,0,0,240,508
13,1,1,0,0,247,510
14,1,1,0,0,258,510
15,1,1,0,0,272,508
0,1,1,0,0,287,507
1,1,1,0,0,304,508
2,1,1,0,0,320,510
3,1,1,0,0,337,507
4,1,1,0,0,355,511
5,1,1,0,0,372,508
6,1,1,0,0,391,508
7,1,1,0,0,412,512
8,1,1,0,0,433,506
9,1,1,0,0,452,509
10,1,1,0,0,470,507
11,1,1,0,0,485,508
12,1,1,0,0,499,509
13,1,1,0,0,512,509
14,1,1,0,0,524,508
15,1,1,0,0,535,510
0,1,1,0,0,544,508
1,1,1,0,0,552,509
2,1,1,0,0,559,509
3,1,1,0,0,563,508
4,1,1,0,0,567,510
5,1,1,0,0,568,508
6,1,1,0,0,569,507
7,1,1,0,0,568,512
8,1,1,0,0,568,508
9,1,1,0,0,568,511
10,1,1,0,0,568,508
11,1,1,0,0,568,509
12,1,1,0,0,568,509
13,1,1,0,0,566,509
14,1,1,0,0,565,507
15,1,1,0,0,564,508
0,1,1,0,0,564,510
1,1,1,0,0,563,510
2,1,1,0,0,563,508
3,1,1,0,0,563,508
4,1,1,0,0,563,510
5,1,1,0,0,562,510
6,1,1,0,0,561,507
7,1,1,0,0,562,511
8,1,1,0,0,562,508
9,1,1,0,0,561,509
10,1,1,0,0,561,510
11,1,1,0,0,561,510
12,1,1,0,0,561,508
13,1,1,0,0,561,507
14,1,1,0,0,561,508
15,1,1,0,0,561,510
0,1,1,0,0,560,510
1,1,1,0,0,560,509
2,1,1,0,0,560,511
3,1,1,0,0,560,508
4,1,1,0,0,559,510
5,1,1,0,0,558,507
6,1,1,0,0,557,512
7,1,1,0,0,557,508
8,1,1,0,0,557,508
9,1,1,0,0,557,512
10,1,1,0,0,557,512
11,1,1,0,0,557,509
12,1,1,0,0,557,507
13,1,1,0,0,557,508
14,1,1,0,0,558,509
15,1,1,0,0,559,509
0,1,1,0,0,559,508
1,1,1,0,0,559,507
2,1,1,0,0,559,508
3,1,1,0,0,559,511
4,1,1,0,0,558,512
5,1,1,0,0,557,509
6,1,1,0,0,557,512
7,1,1,0,0,556,509
8,1,1,0,0,555,510
9,1,1,0,0,554,510
10,1,1,0,0,553,509
11,1,1,0,0,553,507
12,1,1,0,0,552,508
13,1,1,0,0,552,509
14,1,1,0,0,551,510
15,1,1,0,0,551,507
0,1,1,0,0,551,510
1,1,1,0,0,550,508
2,1,1,0,0,550,510
3,1,1,0,0,550,507
4,1,1,0,0,549,512
5,1,1,0,0,549,512
6,1,1,0,0,550,509
7,1,1,0,0,549,510
8,1,1,0,0,550,506
9,1,1,0,0,549,511
10,1,1,0,0,547,508
11,1,1,0,0,546,508
12,1,1,0,0,545,510
13,1,1,0,0,544,512
14,1,1,0,0,544,509
15,1,1,0,0,543,507
0,1,1,0,0,543,508
1,1,1,0,0,542,510
2,1,1,0,0,542,507
3,1,1,0,0,542,511
4,1,1,0,0,543,508
5,1,1,0,0,543,509
6,1,1,0,0,543,508
7,1,1,0,0,544,511
8,1,1,0,0,543,510
9,1,1,0,0,543,508
10,1,1,0,0,542,509
11,1,1,0,0,540,510
12,1,1,0,0,540,510
13,1,1,0,0,540,509
14,1,1,0,0,540,511
15,1,1,0,0,540,508
0,1,1,0,0,540,510
1,1,1,0,0,541,510
2,1,1,0,0,540,509
3,1,1,0,0,540,511
4,1,1,0,0,540,508
5,1,1,0,0,540,508
6,1,1,0,0,540,512
7,1,1,0,0,539,509
8,1,1,0,0,538,512
9,1,1,0,0,536,508
10,1,1,0,0,536,510
11,1,1,0,0,536,510
12,1,1,0,0,535,509
13,1,1,0,0,534,508
14,1,1,0,0,533,509
15,1,1,0,0,533,511
0,1,1,0,0,532,510
1,1,1,0,0,533,510
2,1,1,0,0,533,511
3,1,1,0,0,533,509
4,1,1,0,0,533,510
5,1,1,0,0,532,511
6,1,1,0,0,532,510
7,1,1,0,0,532,510
8,1,1,0,0,531,511
9,1,1,0,0,529,508
10,1,1,0,0,528,513
11,1,1,0,0,528,508
12,1,1,0,0,527,509
13,1,1,0,0,528,509
14,1,1,0,0,528,511
15,1,1,0,0,528,510
0,1,1,0,0,529,510
1,1,1,0,0,530,508
2,1,1,0,0,529,509
3,1,1,0,0,529,510
4,1,1,0,0,528,507
5,1,1,0,0,527,513
6,1,1,0,0,526,509
7,1,1,0,0,526,510
8,1,1,0,0,525,508
9,1,1,0,0,524,512
10,1,1,0,0,523,509
11,1,1,0,0,522,508
12,1,1,0,0,522,509
13,1,1,0,0,523,511
14,1,1,0,0,524,510
15,1,1,0,0,524,509
0,1,1,0,0,524,511
1,1,1,0,0,524,508
2,1,1,0,0,524,508
3,1,1,0,0,524,512
4,1,1,0,0,525,510
5,1,1,0,0,526,508
6,1,1,0,0,527,510
7,1,1,0,0,527,512
8,1,1,0,0,527,513
9,1,1,0,0,527,510
10,1,1,0,0,527,509
11,1,1,0,0,526,509
12,1,1,0,0,525,510
13,1,1,0,0,525,511
14,1,1,0,0,525,508
15,1,1,0,0,524,511
0,1,1,0,0,524,509
1,1,1,0,0,524,510
2,1,1,0,0,523,510
3,1,1,0,0,523,509
4,1,1,0,0,524,511
5,1,1,0,0,523,510
6,1,1,0,0,522,512
7,1,1,0,0,521,511
8,1,1,0,0,521,508
9,1,1,0,0,521,509
10,1,1,0,0,521,509
11,1,1,0,0,520,510
12,1,1,0,0,519,508
13,1,1,0,0,518,506
14,1,1,0,0,517,506
15,1,1,0,0,516,507
0,1,1,0,0,516,510
1,1,1,0,0,514,509
2,1,1,0,0,512,508
3,1,1,0,0,511,510
4,1,1,0,0,510,508
5,1,1,0,0,509,510
6,1,1,0,0,508,510
7,1,1,0,0,506,507
8,1,1,0,0,504,508
9,1,1,0,0,503,508
10,1,1,0,0,501,510
11,1,1,0,0,499,508
12,1,1,0,0,498,507
13,1,1,0,0,496,508
14,1,1,0,0,494,507
15,1,1,0,0,492,508
0,1,1,0,0,490,509
1,1,1,0,0,488,507
2,1,1,0,0,486,509
3,1,1,0,0,483,507
4,1,1,0,0,480,509
5,1,1,0,0,476,509
6,1,1,0,0,472,507
7,1,1,0,0,468,506
8,1,1,0,0,464,507
9,1,1,0,0,460,510
10,1,1,0,0,457,508
11,1,1,0,0,454,506
12,1,1,0,0,453,509
13,1,1,0,0,451,506
14,1,1,0,0,448,508
15,1,1,0,0,446,508
0,1,1,0,0,444,507
1,1,1,0,0,442,509
2,1,1,0,0,439,508
3,1,1,0,0,436,509
4,1,1,0,0,434,510
5,1,1,0,0,431,508
6,1,1,0,0,429,509
7,1,1,0,0,426,508
8,1,1,0,0,423,506
9,1,1,0,0,421,511
10,1,1,0,0,420,507
11,1,1,0,0,419,510
12,1,1,0,0,419,508
13,1,1,0,0,418,508
14,1,1,0,0,417,512
15,1,1,0,0,417,509
0,1,1,0,0,418,512
1,1,1,0,0,419,509
2,1,1,0,0,419,508
3,1,1,0,0,419,512
4,1,1,0,0,418,510
5,1,1,0,0,418,513
6,1,1,0,0,417,510
7,1,1,0,0,415,509
8,1,1,0,0,415,514
9,1,1,0,0,413,511
10,1,1,0,0,412,512
11,1,1,0,0,411,512
12,1,1,0,0,411,509
13,1,1,0,0,410,512
14,1,1,0,0,410,512
15,1,1,0,0,411,510
0,1,1,0,0,412,511
1,1,1,0,0,412,512
2,1,1,0,0,412,509
3,1,1,0,0,412,514
4,1,1,0,0,412,511
5,1,1,0,0,413,512
6,1,1,0,0,414,511
7,1,1,0,0,415,513
8,1,1,0,0,416,512
9,1,1,0,0,418,511
10,1,1,0,0,419,510
11,1,1,0,0,420,513
12,1,1,0,0,421,511
13,1,1,0,0,422,511
14,1,1,0,0,424,513
15,1,1,0,0,424,511
0,1,1,0,0,425,512
1,1,1,0,0,425,513
2,1,1,0,0,426,511
3,1,1,0,0,427,513
4,1,1,0,0,428,511
5,1,1,0,0,430,510
6,1,1,0,0,431,514
7,1,1,0,0,432,511
8,1,1,0,0,434,513
9,1,1,0,0,435,511
10,1,1,0,0,438,512
11,1,1,0,0,440,512
12,1,1,0,0,441,511
13,1,1,0,0,443,510
14,1,1,0,0,444,511
15,1,1,0,0,446,512
0,1,1,0,0,447,512
1,1,1,0,0,448,511
2,1,1,0,0,448,513
3,1,1,0,0,449,511
4,1,1,0,0,450,512
5,1,1,0,0,451,512
6,1,1,0,0,451,511
7,1,1,0,0,452,511
8,1,1,0,0,453,511
9,1,1,0,0,452,509
10,1,1,0,0,453,513
11,1,1,0,0,455,510
12,1,1,0,0,457,513
13,1,1,0,0,459,510
14,1,1,0,0,460,509
15,1,1,0,0,460,512
0,1,1,0,0,461,511
1,1,1,0,0,461,510
2,1,1,0,0,461,512
3,1,1,0,0,461,512
4,1,1,0,0,461,512
5,1,1,0,0,462,512
6,1,1,0,0,462,510
7,1,1,0,0,463,511
8,1,1,0,0,463,512
9,1,1,0,0,464,512
10,1,1,0,0,465,510
11,1,1,0,0,467,514
12,1,1,0,0,468,510
13,1,1,0,0,469,512
14,1,1,0,0,470,512
15,1,1,0,0,471,511
0,1,1,0,0,472,510
1,1,1,0,0,473,510
2,1,1,0,0,475,510
3,1,1,0,0,476,514
4,1,1,0,0,478,512
5,1,1,0,0,479,510
6,1,1,0,0,480,510
7,1,1,0,0,482,512
8,1,1,0,0,483,514
9,1,1,0,0,485,511
10,1,1,0,0,487,510
11,1,1,0,0,489,509
12,1,1,0,0,490,511
13,1,1,0,0,492,511
14,1,1,0,0,493,510
15,1,1,0,0,494,508
0,1,1,0,0,496,509
1,1,1,0,0,497,511
2,1,1,0,0,498,511
3,1,1,0,0,499,510
4,1,1,0,0,502,509
5,1,1,0,0,504,509
6,1,1,0,0,506,513
7,1,1,0,0,508,511
8,1,1,0,0,510,508
9,1,1,0,0,512,510
10,1,1,0,0,512,509
11,1,1,0,0,514,510
12,1,1,0,0,516,508
13,1,1,0,0,516,507
14,1,1,0,0,517,509
15,1,1,0,0,518,507
0,1,1,0,0,518,509
1,1,1,0,0,517,509
2,1,1,0,0,517,508
3,1,1,0,0,516,510
4,1,1,0,0,515,507
5,1,1,0,0,515,509
6,1,1,0,0,514,510
7,1,1,0,0,514,508
8,1,1,0,0,515,506
9,1,1,0,0,515,508
10,1,1,0,0,517,511
11,1,1,0,0,518,506
12,1,1,0,0,519,510
13,1,1,0,0,521,507
14,1,1,0,0,521,508
15,1,1,0,0,521,510
0,1,1,0,0,520,507
1,1,1,0,0,519,511
2,1,1,0,0,519,508
3,1,1,0,0,518,508
4,1,1,0,0,517,510
5,1,1,0,0,516,507
6,1,1,0,0,515,512
7,1,1,0,0,513,508
8,1,1,0,0,513,509
9,1,1,0,0,512,512
10,1,1,0,0,510,513
11,1,1,0,0,508,510
12,1,1,0,0,508,508
13,1,1,0,0,507,509
14,1,1,0,0,507,510
15,1,1,0,0,507,510
0,1,1,0,0,506,509
1,1,1,0,0,505,508
2,1,1,0,0,506,509
3,1,1,0,0,505,512
4,1,1,0,0,504,512
5,1,1,0,0,503,510
6,1,1,0,0,503,513
7,1,1,0,0,502,509
8,1,1,0,0,500,511
9,1,1,0,0,499,511
10,1,1,0,0,497,510
11,1,1,0,0,495,508
12,1,1,0,0,493,508
13,1,1,0,0,491,510
14,1,1,0,0,490,510
15,1,1,0,0,489,509
0,1,1,0,0,489,508
1,1,1,0,0,489,508
2,1,1,0,0,490,510
3,1,1,0,0,491,511
4,1,1,0,0,492,509
5,1,1,0,0,491,508
6,1,1,0,0,490,509
7,1,1,0,0,491,513
8,1,1,0,0,491,508
9,1,1,0,0,491,512
10,1,1,0,0,491,508
11,1,1,0,0,491,509
12,1,1,0,0,491,512
13,1,1,0,0,491,508
14,1,1,0,0,491,513
15,1,1,0,0,492,510
0,1,1,0,0,492,510
1,1,1,0,0,493,512
2,1,1,0,0,493,509
3,1,1,0,0,493,513
4,1,1,0,0,493,510
5,1,1,0,0,493,511
6,1,1,0,0,493,510
7,1,1,0,0,493,513
8,1,1,0,0,493,512
9,1,1,0,0,493,511
10,1,1,0,0,492,510
11,1,1,0,0,492,512
12,1,1,0,0,491,511
13,1,1,0,0,489,510
14,1,1,0,0,488,512
15,1,1,0,0,486,510
0,1,1,0,0,484,511
1,1,1,0,0,482,511
2,1,1,0,0,479,510
3,1,1,0,0,477,512
4,1,1,0,0,476,510
5,1,1,0,0,475,509
6,1,1,0,0,475,513
7,1,1,0,0,475,510
8,1,1,0,0,475,512
9,1,1,0,0,476,510
10,1,1,0,0,477,511
11,1,1,0,0,479,511
12,1,1,0,0,480,510
13,1,1,0,0,480,508
14,1,1,0,0,482,509
15,1,1,0,0,483,510
0,1,1,0,0,483,511
1,1,1,0,0,485,510
2,1,1,0,0,486,510
3,1,1,0,0,486,507
4,1,1,0,0,486,509
5,1,1,0,0,487,510
6,1,1,0,0,488,508
7,1,1,0,0,489,509
8,1,1,0,0,491,508
9,1,1,0,0,493,507
10,1,1,0,0,494,511
11,1,1,0,0,495,506
12,1,1,0,0,496,506
13,1,1,0,0,497,507
14,1,1,0,0,498,508
15,1,1,0,0,499,508
0,1,1,0,0,500,506
1,1,1,0,0,501,505
2,1,1,0,0,504,506
3,1,1,0,0,506,507
4,1,1,0,0,507,505
5,1,1,0,0,506,510
6,1,1,0,0,505,506
7,1,1,0,0,505,507
8,1,1,0,0,504,506
9,1,1,0,0,504,509
10,1,1,0,0,504,508
11,1,1,0,0,504,506
12,1,1,0,0,505,507
13,1,1,0,0,507,508
14,1,1,0,0,508,509
15,1,1,0,0,510,508
0,1,1,0,0,511,508
1,1,1,0,0,512,507
2,1,1,0,0,512,508
3,1,1,0,0,513,509
4,1,1,0,0,513,508
5,1,1,0,0,514,510
6,1,1,0,0,514,507
7,1,1,0,0,514,507
8,1,1,0,0,515,511
9,1,1,0,0,516,508
10,1,1,0,0,515,512
11,1,1,0,0,516,507
12,1,1,0,0,515,505
13,1,1,0,0,515,509
14,1,1,0,0,515,508
15,1,1,0,0,515,506
0,1,1,0,0,515,507
1,1,1,0,0,515,508
2,1,1,0,0,515,508
3,1,1,0,0,516,507
4,1,1,0,0,516,510
5,1,1,0,0,517,508
6,1,1,0,0,516,507
7,1,1,0,0,516,511
8,1,1,0,0,516,508
9,1,1,0,0,517,510
10,1,1,0,0,519,508
11,1,1,0,0,520,510
12,1,1,0,0,523,508
13,1,1,0,0,526,507
14,1,1,0,0,529,509
15,1,1,0,0,533,507
0,1,1,0,0,539,508
1,1,1,0,0,545,509
2,1,1,0,0,553,508
3,1,1,0,0,559,510
4,1,1,0,0,565,508
5,1,1,0,0,571,509
6,1,1,0,0,575,510
7,1,1,0,0,579,507
8,1,1,0,0,584,508
9,1,1,0,0,588,507
10,1,1,0,0,591,509
11,1,1,0,0,593,508
12,1,1,0,0,596,506
13,1,1,0,0,600,508
14,1,1,0,0,602,507
15,1,1,0,0,603,508
0,1,1,0,0,601,508
1,1,1,0,0,599,507
2,1,1,0,0,594,510
3,1,1,0,0,586,507
4,1,1,0,0,576,507
5,1,1,0,0,562,511
6,1,1,0,0,548,508
7,1,1,0,0,534,510
8,1,1,0,0,519,507
9,1,1,0,0,507,506
10,1,1,0,0,496,511
11,1,1,0,0,485,508
12,1,1,0,0,473,512
13,1,1,0,0,457,508
14,1,1,0,0,439,510
15,1,1,0,0,418,510
0,1,1,0,0,397,509
1,1,1,0,0,371,511
2,1,1,0,0,339,508
3,1,1,0,0,304,510
4,1,1,0,0,274,511
5,1,1,0,0,251,509
6,1,1,0,0,231,510
7,1,1,0,0,217,509
8,1,1,0,0,212,511
9,1,1,0,0,211,509
10,1,1,0,0,208,507
11,1,1,0,0,204,509
12,1,1,0,0,203,507
13,1,1,0,0,208,508
14,1,1,0,0,217,509
15,1,1,0,0,232,507
0,1,1,0,0,250,508
1,1,1,0,0,268,508
2,1,1,0,0,287,509
3,1,1,0,0,307,509
4,1,1,0,0,328,508
5,1,1,0,0,350,508
6,1,1,0,0,371,508
7,1,1,0,0,393,512
8,1,1,0,0,417,510
9,1,1,0,0,439,507
10,1,1,0,0,460,509
11,1,1,0,0,478,507
12,1,1,0,0,494,508
13,1,1,0,0,510,510
14,1,1,0,0,524,508
15,1,1,0,0,537,510
0,1,1,0,0,548,507
1,1,1,0,0,560,509
2,1,1,0,0,571,510
3,1,1,0,0,581,508
4,1,1,0,0,589,510
5,1,1,0,0,595,508
6,1,1,0,0,600,512
7,1,1,0,0,604,510
8,1,1,0,0,605,508
9,1,1,0,0,607,508
10,1,1,0,0,608,508
11,1,1,0,0,611,509
12,1,1,0,0,611,508
13,1,1,0,0,612,507
14,1,1,0,0,612,511
15,1,1,0,0,613,508
0,1,1,0,0,612,507
1,1,1,0,0,611,511
2,1,1,0,0,611,509
3,1,1,0,0,610,513
4,1,1,0,0,609,508
5,1,1,0,0,609,508
6,1,1,0,0,609,513
7,1,1,0,0,609,510
8,1,1,0,0,609,514
9,1,1,0,0,609,510
10,1,1,0,0,610,508
11,1,1,0,0,610,513
12,1,1,0,0,611,511
13,1,1,0,0,611,513
14,1,1,0,0,611,510
15,1,1,0,0,611,512
0,1,1,0,0,611,512
1,1,1,0,0,611,511
2,1,1,0,0,610,511
3,1,1,0,0,609,511
4,1,1,0,0,608,514
5,1,1,0,0,607,515
6,1,1,0,0,605,512
7,1,1,0,0,604,515
8,1,1,0,0,603,512
9,1,1,0,0,602,513
10,1,1,0,0,601,514
11,1,1,0,0,601,512
12,1,1,0,0,601,511
13,1,1,0,0,601,511
14,1,1,0,0,601,513
15,1,1,0,0,603,513
0,1,1,0,0,603,512
1,1,1,0,0,603,513
2,1,1,0,0,603,512
3,1,1,0,0,602,513
4,1,1,0,0,600,514
5,1,1,0,0,599,513
6,1,1,0,0,598,513
7,1,1,0,0,598,513
8,1,1,0,0,597,511
9,1,1,0,0,595,515
10,1,1,0,0,593,512
11,1,1,0,0,591,511
12,1,1,0,0,590,512
13,1,1,0,0,590,513
14,1,1,0,0,590,514
15,1,1,0,0,589,513
0,1,1,0,0,590,514
1,1,1,0,0,590,511
2,1,1,0,0,590,511
3,1,1,0,0,590,515
4,1,1,0,0,591,513
5,1,1,0,0,590,512
6,1,1,0,0,590,512
7,1,1,0,0,590,514
8,1,1,0,0,590,512
9,1,1,0,0,590,513
10,1,1,0,0,589,511
11,1,1,0,0,588,512
12,1,1,0,0,588,513
13,1,1,0,0,587,513
14,1,1,0,0,585,513
15,1,1,0,0,583,513
0,1,1,0,0,583,511
1,1,1,0,0,582,513
2,1,1,0,0,580,513
3,1,1,0,0,580,512
4,1,1,0,0,580,513
5,1,1,0,0,580,511
6,1,1,0,0,582,511
7,1,1,0,0,582,515
8,1,1,0,0,583,511
9,1,1,0,0,583,515
10,1,1,0,0,583,511
11,1,1,0,0,583,512
12,1,1,0,0,582,513
13,1,1,0,0,581,511
14,1,1,0,0,580,510
15,1,1,0,0,579,511
0,1,1,0,0,578,512
1,1,1,0,0,577,512
2,1,1,0,0,576,511
3,1,1,0,0,575,511
4,1,1,0,0,575,511
5,1,1,0,0,574,512
6,1,1,0,0,574,510
7,1,1,0,0,573,514
8,1,1,0,0,574,510
9,1,1,0,0,575,510
10,1,1,0,0,575,512
11,1,1,0,0,575,512
12,1,1,0,0,575,510
13,1,1,0,0,576,509
14,1,1,0,0,576,509
15,1,1,0,0,576,511
0,1,1,0,0,576,512
1,1,1,0,0,575,510
2,1,1,0,0,575,512
3,1,1,0,0,575,510
4,1,1,0,0,574,511
5,1,1,0,0,574,508
6,1,1,0,0,573,513
7,1,1,0,0,572,509
8,1,1,0,0,571,510
9,1,1,0,0,571,513
10,1,1,0,0,571,512
11,1,1,0,0,571,510
12,1,1,0,0,572,508
13,1,1,0,0,574,509
14,1,1,0,0,575,511
15,1,1,0,0,575,511
0,1,1,0,0,577,509
1,1,1,0,0,578,508
2,1,1,0,0,578,509
3,1,1,0,0,579,512
4,1,1,0,0,579,511
5,1,1,0,0,579,509
6,1,1,0,0,579,510
7,1,1,0,0,579,508
8,1,1,0,0,579,507
9,1,1,0,0,578,511
10,1,1,0,0,577,510
11,1,1,0,0,577,507
12,1,1,0,0,576,508
13,1,1,0,0,576,510
14,1,1,0,0,575,510
15,1,1,0,0,575,509
0,1,1,0,0,576,510
1,1,1,0,0,576,508
2,1,1,0,0,577,508
3,1,1,0,0,578,511
4,1,1,0,0,578,510
5,1,1,0,0,578,507
6,1,1,0,0,579,508
7,1,1,0,0,579,511
8,1,1,0,0,579,510
9,1,1,0,0,578,508
10,1,1,0,0,579,507
11,1,1,0,0,579,506
12,1,1,0,0,579,508
13,1,1,0,0,578,508
14,1,1,0,0,577,506
15,1,1,0,0,576,505
0,1,1,0,0,576,507
1,1,1,0,0,576,508
2,1,1,0,0,576,508
3,1,1,0,0,576,506
4,1,1,0,0,576,506
5,1,1,0,0,577,507
6,1,1,0,0,578,511
7,1,1,0,0,578,505
8,1,1,0,0,579,510
9,1,1,0,0,579,505
10,1,1,0,0,579,508
11,1,1,0,0,579,508
12,1,1,0,0,577,508
13,1,1,0,0,576,507
14,1,1,0,0,575,505
15,1,1,0,0,575,506
0,1,1,0,0,574,508
1,1,1,0,0,572,508
2,1,1,0,0,571,507
3,1,1,0,0,569,508
4,1,1,0,0,569,506
5,1,1,0,0,568,508
6,1,1,0,0,568,508
7,1,1,0,0,568,508
8,1,1,0,0,567,507
9,1,1,0,0,568,508
10,1,1,0,0,567,509
11,1,1,0,0,566,508
12,1,1,0,0,567,506
13,1,1,0,0,566,508
14,1,1,0,0,566,507
15,1,1,0,0,566,508
0,1,1,0,0,566,509
1,1,1,0,0,566,508
2,1,1,0,0,566,508
3,1,1,0,0,566,507
4,1,1,0,0,566,507
5,1,1,0,0,564,510
6,1,1,0,0,563,508
7,1,1,0,0,562,508
8,1,1,0,0,560,508
9,1,1,0,0,559,507
10,1,1,0,0,558,512
11,1,1,0,0,557,506
12,1,1,0,0,555,507
13,1,1,0,0,555,507
14,1,1,0,0,555,509
15,1,1,0,0,555,509
0,1,1,0,0,556,508
1,1,1,0,0,556,507
2,1,1,0,0,554,508
3,1,1,0,0,553,509
4,1,1,0,0,550,507
5,1,1,0,0,546,512
6,1,1,0,0,540,508
7,1,1,0,0,536,509
8,1,1,0,0,530,508
9,1,1,0,0,524,513
10,1,1,0,0,519,510
11,1,1,0,0,513,507
12,1,1,0,0,509,508
13,1,1,0,0,504,510
14,1,1,0,0,500,511
15,1,1,0,0,498,510
0,1,1,0,0,496,511
1,1,1,0,0,494,509
2,1,1,0,0,492,508
3,1,1,0,0,489,512
4,1,1,0,0,487,511
5,1,1,0,0,484,508
6,1,1,0,0,482,509
7,1,1,0,0,480,511
8,1,1,0,0,479,512
9,1,1,0,0,477,511
10,1,1,0,0,476,508
11,1,1,0,0,474,508
12,1,1,0,0,474,510
13,1,1,0,0,473,510
14,1,1,0,0,472,509
15,1,1,0,0,471,507
0,1,1,0,0,472,508
1,1,1,0,0,472,510
2,1,1,0,0,472,507
3,1,1,0,0,471,511
4,1,1,0,0,472,508
5,1,1,0,0,471,508
6,1,1,0,0,471,508
7,1,1,0,0,471,512
8,1,1,0,0,471,508
9,1,1,0,0,471,507
10,1,1,0,0,470,507
11,1,1,0,0,470,509
12,1,1,0,0,468,508
13,1,1,0,0,467,508
14,1,1,0,0,466,509
15,1,1,0,0,465,507
0,1,1,0,0,464,508
1,1,1,0,0,463,508
2,1,1,0,0,463,507
3,1,1,0,0,463,509
4,1,1,0,0,464,507
5,1,1,0,0,464,507
6,1,1,0,0,464,511
7,1,1,0,0,464,508
8,1,1,0,0,463,511
9,1,1,0,0,463,507
10,1,1,0,0,463,505
11,1,1,0,0,462,510
12,1,1,0,0,462,509
13,1,1,0,0,461,507
14,1,1,0,0,460,508
15,1,1,0,0,459,509
0,1,1,0,0,459,510
1,1,1,0,0,457,508
2,1,1,0,0,457,507
3,1,1,0,0,457,508
4,1,1,0,0,457,510
5,1,1,0,0,458,510
6,1,1,0,0,459,509
7,1,1,0,0,460,508
8,1,1,0,0,462,509
9,1,1,0,0,463,513
10,1,1,0,0,463,508
11,1,1,0,0,463,513
12,1,1,0,0,462,509
13,1,1,0,0,460,510
14,1,1,0,0,457,512
15,1,1,0,0,454,512
0,1,1,0,0,451,511
1,1,1,0,0,448,509
2,1,1,0,0,445,511
3,1,1,0,0,442,513
4,1,1,0,0,439,515
5,1,1,0,0,435,511
6,1,1,0,0,433,516
7,1,1,0,0,432,512
8,1,1,0,0,431,514
9,1,1,0,0,431,515
10,1,1,0,0,432,512
11,1,1,0,0,432,511
12,1,1,0,0,433,511
13,1,1,0,0,434,513
14,1,1,0,0,436,513
15,1,1,0,0,438,512
0,1,1,0,0,439,513
1,1,1,0,0,441,512
2,1,1,0,0,444,513
3,1,1,0,0,447,514
4,1,1,0,0,449,513
5,1,1,0,0,451,513
6,1,1,0,0,453,513
7,1,1,0,0,455,511
8,1,1,0,0,459,516
9,1,1,0,0,460,512
10,1,1,0,0,462,512
11,1,1,0,0,463,511
12,1,1,0,0,466,513
13,1,1,0,0,470,514
14,1,1,0,0,473,513
15,1,1,0,0,476,513
0,1,1,0,0,478,512
1,1,1,0,0,480,514
2,1,1,0,0,482,514
3,1,1,0,0,484,512
4,1,1,0,0,485,515
5,1,1,0,0,484,512
6,1,1,0,0,484,512
7,1,1,0,0,484,516
8,1,1,0,0,483,513
9,1,1,0,0,481,516
10,1,1,0,0,480,512
11,1,1,0,0,480,511
12,1,1,0,0,480,514
13,1,1,0,0,480,512
14,1,1,0,0,479,514
15,1,1,0,0,478,512
0,1,1,0,0,478,515
1,1,1,0,0,477,514
2,1,1,0,0,476,513
3,1,1,0,0,475,515
4,1,1,0,0,475,513
5,1,1,0,0,475,515
6,1,1,0,0,475,515
7,1,1,0,0,475,513
8,1,1,0,0,475,514
9,1,1,0,0,474,512
10,1,1,0,0,474,515
11,1,1,0,0,474,513
12,1,1,0,0,475,511
13,1,1,0,0,475,514
14,1,1,0,0,475,512
15,1,1,0,0,474,513
0,1,1,0,0,473,514
1,1,1,0,0,472,512
2,1,1,0,0,470,514
3,1,1,0,0,468,512
4,1,1,0,0,467,514
5,1,1,0,0,466,515
6,1,1,0,0,465,512
7,1,1,0,0,464,511
8,1,1,0,0,464,512
9,1,1,0,0,463,515
10,1,1,0,0,463,513
11,1,1,0,0,462,511
12,1,1,0,0,461,512
13,1,1,0,0,460,511
14,1,1,0,0,460,512
15,1,1,0,0,459,513
0,1,1,0,0,459,511
1,1,1,0,0,459,512
2,1,1,0,0,459,511
3,1,1,0,0,459,513
4,1,1,0,0,459,513
5,1,1,0,0,460,512
6,1,1,0,0,463,512
7,1,1,0,0,464,511
8,1,1,0,0,465,513
9,1,1,0,0,465,511
10,1,1,0,0,465,509
11,1,1,0,0,466,507
12,1,1,0,0,466,509
13,1,1,0,0,467,511
14,1,1,0,0,468,509
15,1,1,0,0,469,513
0,1,1,0,0,471,509
1,1,1,0,0,473,510
2,1,1,0,0,476,513
3,1,1,0,0,479,510
4,1,1,0,0,481,514
5,1,1,0,0,483,510
6,1,1,0,0,484,511
7,1,1,0,0,485,513
8,1,1,0,0,485,510
9,1,1,0,0,486,515
10,1,1,0,0,485,510
11,1,1,0,0,485,511
12,1,1,0,0,485,514
13,1,1,0,0,486,511
14,1,1,0,0,487,515
15,1,1,0,0,488,511
0,1,1,0,0,490,513
1,1,1,0,0,492,511
2,1,1,0,0,494,515
3,1,1,0,0,496,513
4,1,1,0,0,497,511
5,1,1,0,0,497,512
6,1,1,0,0,497,514
7,1,1,0,0,497,513
8,1,1,0,0,497,513
9,1,1,0,0,496,513
10,1,1,0,0,496,511
11,1,1,0,0,495,510
12,1,1,0,0,494,513
13,1,1,0,0,491,512
14,1,1,0,0,490,510
15,1,1,0,0,488,511
0,1,1,0,0,487,513
1,1,1,0,0,485,510
2,1,1,0,0,483,514
3,1,1,0,0,482,510
4,1,1,0,0,480,511
5,1,1,0,0,479,509
6,1,1,0,0,480,513
7,1,1,0,0,481,511
8,1,1,0,0,482,515
9,1,1,0,0,482,511
10,1,1,0,0,484,511
11,1,1,0,0,486,513
12,1,1,0,0,487,513
13,1,1,0,0,487,511
14,1,1,0,0,487,511
15,1,1,0,0,488,513
0,1,1,0,0,489,513
1,1,1,0,0,490,512
2,1,1,0,0,491,512
3,1,1,0,0,491,511
4,1,1,0,0,491,513
5,1,1,0,0,491,510
6,1,1,0,0,491,515
7,1,1,0,0,491,509
8,1,1,0,0,491,511
9,1,1,0,0,489,512
10,1,1,0,0,490,512
11,1,1,0,0,490,510
12,1,1,0,0,490,508
13,1,1,0,0,491,509
14,1,1,0,0,492,511
15,1,1,0,0,493,511
0,1,1,0,0,493,509
1,1,1,0,0,494,511
2,1,1,0,0,495,509
3,1,1,0,0,496,511
4,1,1,0,0,496,508
5,1,1,0,0,496,514
6,1,1,0,0,496,508
7,1,1,0,0,496,509
8,1,1,0,0,496,512
9,1,1,0,0,496,510
10,1,1,0,0,496,507
11,1,1,0,0,496,508
12,1,1,0,0,496,507
13,1,1,0,0,496,505
14,1,1,0,0,495,509
15,1,1,0,0,496,508
0,1,1,0,0,496,506
1,1,1,0,0,496,507
2,1,1,0,0,497,509
3,1,1,0,0,497,506
4,1,1,0,0,498,511
5,1,1,0,0,498,507
6,1,1,0,0,498,507
7,1,1,0,0,497,507
8,1,1,0,0,496,510
9,1,1,0,0,496,509
10,1,1,0,0,496,507
11,1,1,0,0,497,508
12,1,1,0,0,498,506
13,1,1,0,0,500,507
14,1,1,0,0,502,509
15,1,1,0,0,504,507
0,1,1,0,0,505,507
1,1,1,0,0,508,509
2,1,1,0,0,510,509
3,1,1,0,0,512,507
4,1,1,0,0,513,507
5,1,1,0,0,515,507
6,1,1,0,0,516,508
7,1,1,0,0,517,509
8,1,1,0,0,517,508
9,1,1,0,0,517,507
10,1,1,0,0,516,508
11,1,1,0,0,516,510
12,1,1,0,0,516,507
13,1,1,0,0,516,511
14,1,1,0,0,517,507
15,1,1,0,0,520,510
0,1,1,0,0,524,508
1,1,1,0,0,531,512
2,1,1,0,0,536,510
3,1,1,0,0,541,508
4,1,1,0,0,544,508
5,1,1,0,0,548,511
6,1,1,0,0,551,511
7,1,1,0,0,554,510
8,1,1,0,0,555,510
9,1,1,0,0,555,508
10,1,1,0,0,555,508
11,1,1,0,0,553,511
12,1,1,0,0,554,510
13,1,1,0,0,555,508
14,1,1,0,0,556,509
15,1,1,0,0,555,510
0,1,1,0,0,554,511
1,1,1,0,0,551,510
2,1,1,0,0,545,509
3,1,1,0,0,537,509
4,1,1,0,0,527,511
5,1,1,0,0,516,508
6,1,1,0,0,503,512
7,1,1,0,0,489,508
8,1,1,0,0,475,509
9,1,1,0,0,463,511
10,1,1,0,0,452,511
11,1,1,0,0,443,510
12,1,1,0,0,432,508
13,1,1,0,0,422,508
14,1,1,0,0,409,511
15,1,1,0,0,392,511
0,1,1,0,0,372,509
1,1,1,0,0,350,510
2,1,1,0,0,322,509
3,1,1,0,0,287,510
4,1,1,0,0,251,508
5,1,1,0,0,221,513
6,1,1,0,0,196,508
7,1,1,0,0,177,509
8,1,1,0,0,167,513
9,1,1,0,0,162,510
10,1,1,0,0,158,509
11,1,1,0,0,151,507
12,1,1,0,0,143,508
13,1,1,0,0,140,509
14,1,1,0,0,143,510
15,1,1,0,0,153,508
0,1,1,0,0,167,507
1,1,1,0,0,183,508
2,1,1,0,0,199,509
3,1,1,0,0,219,510
4,1,1,0,0,242,508
5,1,1,0,0,265,507
6,1,1,0,0,289,508
7,1,1,0,0,316,512
8,1,1,0,0,341,507
9,1,1,0,0,366,511
10,1,1,0,0,388,508
11,1,1,0,0,409,508
12,1,1,0,0,429,510
13,1,1,0,0,448,508
14,1,1,0,0,463,510
15,1,1,0,0,476,508
0,1,1,0,0,487,508
1,1,1,0,0,497,510
2,1,1,0,0,507,510
3,1,1,0,0,513,510
4,1,1,0,0,517,509
5,1,1,0,0,521,510
6,1,1,0,0,525,511
7,1,1,0,0,528,511
8,1,1,0,0,532,509
9,1,1,0,0,535,508
10,1,1,0,0,538,508
11,1,1,0,0,541,511
12,1,1,0,0,543,509
13,1,1,0,0,546,507
14,1,1,0,0,547,509
15,1,1,0,0,548,508
0,1,1,0,0,548,510
1,1,1,0,0,550,510
2,1,1,0,0,551,508
3,1,1,0,0,553,509
4,1,1,0,0,555,508
5,1,1,0,0,557,510
6,1,1,0,0,559,510
7,1,1,0,0,562,507
8,1,1,0,0,564,508
9,1,1,0,0,566,507
10,1,1,0,0,567,510
11,1,1,0,0,568,508
12,1,1,0,0,569,506
13,1,1,0,0,570,508
14,1,1,0,0,570,507
15,1,1,0,0,569,508
0,1,1,0,0,569,510
1,1,1,0,0,570,507
2,1,1,0,0,571,509
3,1,1,0,0,572,508
4,1,1,0,0,573,509
5,1,1,0,0,573,507
6,1,1,0,0,573,512
7,1,1,0,0,573,507
8,1,1,0,0,574,508
9,1,1,0,0,575,512
10,1,1,0,0,576,507
11,1,1,0,0,576,512
12,1,1,0,0,577,508
13,1,1,0,0,579,509
14,1,1,0,0,579,512
15,1,1,0,0,582,509
0,1,1,0,0,583,513
1,1,1,0,0,583,508
2,1,1,0,0,583,510
3,1,1,0,0,584,512
4,1,1,0,0,584,512
5,1,1,0,0,583,510
6,1,1,0,0,582,511
7,1,1,0,0,581,510
8,1,1,0,0,579,509
9,1,1,0,0,579,512
10,1,1,0,0,580,511
11,1,1,0,0,582,510
12,1,1,0,0,583,510
13,1,1,0,0,585,512
14,1,1,0,0,587,512
15,1,1,0,0,588,511
0,1,1,0,0,590,511
1,1,1,0,0,591,509
2,1,1,0,0,593,512
3,1,1,0,0,595,512
4,1,1,0,0,598,510
5,1,1,0,0,600,511
6,1,1,0,0,601,509
7,1,1,0,0,602,510
8,1,1,0,0,603,513
9,1,1,0,0,603,510
10,1,1,0,0,602,515
11,1,1,0,0,603,509
12,1,1,0,0,604,511
13,1,1,0,0,607,512
14,1,1,0,0,609,511
15,1,1,0,0,611,510
0,1,1,0,0,611,510
1,1,1,0,0,612,511
2,1,1,0,0,612,512
3,1,1,0,0,611,510
4,1,1,0,0,610,511
5,1,1,0,0,609,510
6,1,1,0,0,607,510
7,1,1,0,0,606,514
8,1,1,0,0,603,509
9,1,1,0,0,601,510
10,1,1,0,0,599,510
11,1,1,0,0,597,511
12,1,1,0,0,596,511
13,1,1,0,0,593,511
14,1,1,0,0,592,508
15,1,1,0,0,591,510
0,1,1,0,0,588,511
1,1,1,0,0,586,511
2,1,1,0,0,586,509
3,1,1,0,0,585,511
4,1,1,0,0,584,510
5,1,1,0,0,583,511
6,1,1,0,0,583,509
7,1,1,0,0,583,514
8,1,1,0,0,581,511
9,1,1,0,0,581,509
10,1,1,0,0,580,512
11,1,1,0,0,578,507
12,1,1,0,0,577,512
13,1,1,0,0,576,508
14,1,1,0,0,574,509
15,1,1,0,0,572,510
0,1,1,0,0,571,511
1,1,1,0,0,569,509
2,1,1,0,0,568,509
3,1,1,0,0,568,510
4,1,1,0,0,567,511
5,1,1,0,0,566,508
6,1,1,0,0,565,512
7,1,1,0,0,563,509
8,1,1,0,0,562,509
9,1,1,0,0,560,511
10,1,1,0,0,560,511
11,1,1,0,0,559,509
12,1,1,0,0,558,507
13,1,1,0,0,556,508
14,1,1,0,0,557,510
15,1,1,0,0,556,510
0,1,1,0,0,556,508
1,1,1,0,0,554,510
2,1,1,0,0,553,508
3,1,1,0,0,552,510
4,1,1,0,0,551,508
5,1,1,0,0,549,514
6,1,1,0,0,549,508
7,1,1,0,0,548,509
8,1,1,0,0,547,512
9,1,1,0,0,546,511
10,1,1,0,0,546,510
11,1,1,0,0,547,509
12,1,1,0,0,546,508
13,1,1,0,0,546,509
14,1,1,0,0,546,510
15,1,1,0,0,545,508
0,1,1,0,0,545,508
1,1,1,0,0,545,508
2,1,1,0,0,544,510
3,1,1,0,0,543,510
4,1,1,0,0,543,508
5,1,1,0,0,542,510
6,1,1,0,0,540,508
7,1,1,0,0,539,510
8,1,1,0,0,538,509
9,1,1,0,0,537,506
10,1,1,0,0,537,507
11,1,1,0,0,536,505
12,1,1,0,0,536,507
13,1,1,0,0,536,507
14,1,1,0,0,535,506
15,1,1,0,0,535,505
0,1,1,0,0,534,506
1,1,1,0,0,534,509
2,1,1,0,0,533,509
3,1,1,0,0,533,507
4,1,1,0,0,534,508
5,1,1,0,0,534,507
6,1,1,0,0,533,510
7,1,1,0,0,534,508
8,1,1,0,0,534,505
9,1,1,0,0,534,506
10,1,1,0,0,534,505
11,1,1,0,0,534,507
12,1,1,0,0,534,508
13,1,1,0,0,535,506
14,1,1,0,0,534,507
15,1,1,0,0,534,505
0,1,1,0,0,534,508
1,1,1,0,0,533,508
2,1,1,0,0,533,506
3,1,1,0,0,534,507
4,1,1,0,0,534,506
5,1,1,0,0,533,508
6,1,1,0,0,534,509
7,1,1,0,0,534,506
8,1,1,0,0,535,505
9,1,1,0,0,537,506
10,1,1,0,0,538,508
11,1,1,0,0,538,509
12,1,1,0,0,539,507
13,1,1,0,0,539,509
14,1,1,0,0,541,507
15,1,1,0,0,541,509
0,1,1,0,0,541,509
1,1,1,0,0,542,508
2,1,1,0,0,543,509
3,1,1,0,0,547,508
4,1,1,0,0,548,510
5,1,1,0,0,551,508
6,1,1,0,0,551,512
7,1,1,0,0,552,508
8,1,1,0,0,551,508
9,1,1,0,0,551,513
10,1,1,0,0,550,508
11,1,1,0,0,549,513
12,1,1,0,0,547,509
13,1,1,0,0,545,510
14,1,1,0,0,543,511
15,1,1,0,0,540,512
0,1,1,0,0,537,508
1,1,1,0,0,535,509
2,1,1,0,0,532,510
3,1,1,0,0,529,512
4,1,1,0,0,526,509
5,1,1,0,0,524,514
6,1,1,0,0,522,510
7,1,1,0,0,519,511
8,1,1,0,0,516,515
9,1,1,0,0,513,510
10,1,1,0,0,512,515
11,1,1,0,0,509,509
12,1,1,0,0,508,511
13,1,1,0,0,506,512
14,1,1,0,0,504,512
15,1,1,0,0,503,512
0,1,1,0,0,503,510
1,1,1,0,0,502,510
2,1,1,0,0,502,512
3,1,1,0,0,502,512
4,1,1,0,0,501,511
5,1,1,0,0,500,511
6,1,1,0,0,498,512
7,1,1,0,0,496,513
8,1,1,0,0,494,511
9,1,1,0,0,492,515
10,1,1,0,0,490,511
11,1,1,0,0,489,511
12,1,1,0,0,488,513
13,1,1,0,0,489,514
14,1,1,0,0,489,512
15,1,1,0,0,489,511
0,1,1,0,0,488,511
1,1,1,0,0,488,513
2,1,1,0,0,487,511
3,1,1,0,0,487,515
4,1,1,0,0,487,512
5,1,1,0,0,487,512
6,1,1,0,0,486,512
7,1,1,0,0,486,515
8,1,1,0,0,486,514
9,1,1,0,0,485,512
10,1,1,0,0,484,512
11,1,1,0,0,484,514
12,1,1,0,0,484,515
13,1,1,0,0,483,514
14,1,1,0,0,483,513
15,1,1,0,0,483,512
0,1,1,0,0,484,514
1,1,1,0,0,484,515
2,1,1,0,0,485,513
3,1,1,0,0,486,514
4,1,1,0,0,487,513
5,1,1,0,0,488,512
6,1,1,0,0,489,517
7,1,1,0,0,489,513
8,1,1,0,0,490,517
9,1,1,0,0,492,512
10,1,1,0,0,493,514
11,1,1,0,0,495,515
12,1,1,0,0,495,514
13,1,1,0,0,494,514
14,1,1,0,0,494,513
15,1,1,0,0,494,515
0,1,1,0,0,494,515
1,1,1,0,0,494,514
2,1,1,0,0,495,514
3,1,1,0,0,495,514
4,1,1,0,0,495,513
5,1,1,0,0,496,517
6,1,1,0,0,496,514
7,1,1,0,0,497,519
8,1,1,0,0,499,513
9,1,1,0,0,499,513
10,1,1,0,0,500,517
11,1,1,0,0,501,516
12,1,1,0,0,502,514
13,1,1,0,0,502,514
14,1,1,0,0,502,517
15,1,1,0,0,503,515
0,1,1,0,0,503,515
1,1,1,0,0,504,515
2,1,1,0,0,504,514
3,1,1,0,0,504,514
4,1,1,0,0,507,518
5,1,1,0,0,508,516
6,1,1,0,0,508,519
7,1,1,0,0,509,514
8,1,1,0,0,510,516
9,1,1,0,0,510,517
10,1,1,0,0,509,515
11,1,1,0,0,510,513
12,1,1,0,0,511,513
13,1,1,0,0,510,515
14,1,1,0,0,511,515
15,1,1,0,0,510,515
0,1,1,0,0,510,514
1,1,1,0,0,510,513
2,1,1,0,0,510,515
3,1,1,0,0,512,515
4,1,1,0,0,512,515
5,1,1,0,0,512,514
6,1,1,0,0,512,512
7,1,1,0,0,512,516
8,1,1,0,0,512,514
9,1,1,0,0,512,511
10,1,1,0,0,512,516
11,1,1,0,0,512,512
12,1,1,0,0,513,515
13,1,1,0,0,513,515
14,1,1,0,0,512,513
15,1,1,0,0,512,512
0,1,1,0,0,512,512
1,1,1,0,0,511,515
2,1,1,0,0,511,514
3,1,1,0,0,511,514
4,1,1,0,0,511,513
5,1,1,0,0,511,512
6,1,1,0,0,511,514
7,1,1,0,0,511,515
8,1,1,0,0,510,513
9,1,1,0,0,508,514
10,1,1,0,0,505,513
11,1,1,0,0,504,512
12,1,1,0,0,504,515
13,1,1,0,0,504,514
14,1,1,0,0,503,517
15,1,1,0,0,504,513
0,1,1,0,0,504,513
1,1,1,0,0,504,517
2,1,1,0,0,503,515
3,1,1,0,0,502,513
4,1,1,0,0,501,515
5,1,1,0,0,500,515
6,1,1,0,0,500,512
7,1,1,0,0,499,516
8,1,1,0,0,499,513
9,1,1,0,0,499,513
10,1,1,0,0,499,515
11,1,1,0,0,499,515
12,1,1,0,0,498,514
13,1,1,0,0,498,512
14,1,1,0,0,497,512
15,1,1,0,0,496,514
0,1,1,0,0,495,515
1,1,1,0,0,492,512
2,1,1,0,0,491,513
3,1,1,0,0,492,511
4,1,1,0,0,492,514
5,1,1,0,0,492,511
6,1,1,0,0,491,516
7,1,1,0,0,490,511
8,1,1,0,0,488,512
9,1,1,0,0,487,515
10,1,1,0,0,486,513
11,1,1,0,0,486,512
12,1,1,0,0,485,511
13,1,1,0,0,485,511
14,1,1,0,0,484,513
15,1,1,0,0,485,514
0,1,1,0,0,485,511
1,1,1,0,0,485,511
2,1,1,0,0,484,511
3,1,1,0,0,485,514
4,1,1,0,0,486,511
5,1,1,0,0,487,516
6,1,1,0,0,490,511
7,1,1,0,0,492,511
8,1,1,0,0,492,515
9,1,1,0,0,494,510
10,1,1,0,0,494,513
11,1,1,0,0,496,510
12,1,1,0,0,496,510
13,1,1,0,0,497,512
14,1,1,0,0,499,513
15,1,1,0,0,501,511
0,1,1,0,0,503,511
1,1,1,0,0,506,510
2,1,1,0,0,508,512
3,1,1,0,0,510,512
4,1,1,0,0,510,510
5,1,1,0,0,510,510
6,1,1,0,0,510,509
7,1,1,0,0,511,509
8,1,1,0,0,511,513
9,1,1,0,0,511,510
10,1,1,0,0,511,514
11,1,1,0,0,511,509
12,1,1,0,0,511,511
13,1,1,0,0,512,511
14,1,1,0,0,513,511
15,1,1,0,0,514,509
0,1,1,0,0,514,509
1,1,1,0,0,514,511
2,1,1,0,0,514,511
3,1,1,0,0,514,510
4,1,1,0,0,514,509
5,1,1,0,0,513,509
6,1,1,0,0,512,509
7,1,1,0,0,512,513
8,1,1,0,0,512,508
9,1,1,0,0,511,509
10,1,1,0,0,510,508
11,1,1,0,0,508,510
12,1,1,0,0,508,511
13,1,1,0,0,507,510
14,1,1,0,0,506,509
15,1,1,0,0,505,508
0,1,1,0,0,504,510
1,1,1,0,0,504,510
2,1,1,0,0,503,510
3,1,1,0,0,501,509
4,1,1,0,0,500,508
5,1,1,0,0,498,508
6,1,1,0,0,497,512
7,1,1,0,0,496,510
8,1,1,0,0,496,513
9,1,1,0,0,495,507
10,1,1,0,0,494,510
11,1,1,0,0,494,510
12,1,1,0,0,494,510
13,1,1,0,0,494,508
14,1,1,0,0,494,508
15,1,1,0,0,495,510
0,1,1,0,0,495,510
1,1,1,0,0,496,510
2,1,1,0,0,497,509
3,1,1,0,0,497,508
4,1,1,0,0,498,510
5,1,1,0,0,499,511
6,1,1,0,0,499,510
7,1,1,0,0,499,510
8,1,1,0,0,500,509
9,1,1,0,0,501,508
10,1,1,0,0,501,513
11,1,1,0,0,501,507
12,1,1,0,0,501,509
13,1,1,0,0,501,508
14,1,1,0,0,500,510
15,1,1,0,0,500,511
0,1,1,0,0,499,509
1,1,1,0,0,498,508
2,1,1,0,0,498,507
3,1,1,0,0,497,509
4,1,1,0,0,498,507
5,1,1,0,0,498,513
6,1,1,0,0,499,508
7,1,1,0,0,500,508
8,1,1,0,0,500,508
9,1,1,0,0,501,513
10,1,1,0,0,502,509
11,1,1,0,0,502,508
12,1,1,0,0,502,508
13,1,1,0,0,502,510
14,1,1,0,0,503,511
15,1,1,0,0,503,510
0,1,1,0,0,503,509
1,1,1,0,0,502,508
2,1,1,0,0,501,508
3,1,1,0,0,499,512
4,1,1,0,0,499,510
5,1,1,0,0,497,508
6,1,1,0,0,497,510
7,1,1,0,0,497,511
8,1,1,0,0,497,512
9,1,1,0,0,497,511
10,1,1,0,0,498,509
11,1,1,0,0,498,507
12,1,1,0,0,499,510
13,1,1,0,0,501,511
14,1,1,0,0,502,508
15,1,1,0,0,503,508
0,1,1,0,0,504,508
1,1,1,0,0,505,511
2,1,1,0,0,506,511
3,1,1,0,0,506,508
4,1,1,0,0,507,508
5,1,1,0,0,507,509
6,1,1,0,0,507,512
7,1,1,0,0,508,508
8,1,1,0,0,509,512
9,1,1,0,0,511,508
10,1,1,0,0,514,508
11,1,1,0,0,519,510
12,1,1,0,0,525,510
13,1,1,0,0,533,508
14,1,1,0,0,543,508
15,1,1,0,0,552,508
0,1,1,0,0,561,509
1,1,1,0,0,568,510
2,1,1,0,0,574,508
3,1,1,0,0,580,509
4,1,1,0,0,583,508
5,1,1,0,0,586,510
6,1,1,0,0,586,508
7,1,1,0,0,585,512
8,1,1,0,0,584,508
9,1,1,0,0,584,508
10,1,1,0,0,584,512
11,1,1,0,0,583,509
12,1,1,0,0,583,508
13,1,1,0,0,582,509
14,1,1,0,0,580,508
15,1,1,0,0,577,510
0,1,1,0,0,572,510
1,1,1,0,0,567,508
2,1,1,0,0,562,509
3,1,1,0,0,555,508
4,1,1,0,0,548,510
5,1,1,0,0,542,511
6,1,1,0,0,537,508
7,1,1,0,0,533,508
8,1,1,0,0,527,507
9,1,1,0,0,521,510
10,1,1,0,0,517,508
11,1,1,0,0,508,506
12,1,1,0,0,495,507
13,1,1,0,0,477,506
14,1,1,0,0,454,508
15,1,1,0,0,424,508
0,1,1,0,0,389,507
1,1,1,0,0,350,507
2,1,1,0,0,315,507
3,1,1,0,0,287,510
4,1,1,0,0,269,510
5,1,1,0,0,258,508
6,1,1,0,0,253,508
7,1,1,0,0,249,507
8,1,1,0,0,241,510
9,1,1,0,0,231,509
10,1,1,0,0,224,506
11,1,1,0,0,224,507
12,1,1,0,0,231,506
13,1,1,0,0,242,509
14,1,1,0,0,254,509
15,1,1,0,0,268,507
0,1,1,0,0,285,507
1,1,1,0,0,303,507
2,1,1,0,0,323,509
3,1,1,0,0,344,510
4,1,1,0,0,366,508
5,1,1,0,0,388,508
6,1,1,0,0,411,507
7,1,1,0,0,431,510
8,1,1,0,0,451,508
9,1,1,0,0,470,506
10,1,1,0,0,486,506
11,1,1,0,0,500,505
12,1,1,0,0,512,505
13,1,1,0,0,523,508
14,1,1,0,0,531,506
15,1,1,0,0,537,507
0,1,1,0,0,542,507
1,1,1,0,0,545,508
2,1,1,0,0,548,509
3,1,1,0,0,550,507
4,1,1,0,0,550,508
5,1,1,0,0,549,507
6,1,1,0,0,548,511
7,1,1,0,0,547,509
8,1,1,0,0,546,506
9,1,1,0,0,545,506
10,1,1,0,0,543,506
11,1,1,0,0,542,505
12,1,1,0,0,540,510
13,1,1,0,0,539,508
14,1,1,0,0,538,512
15,1,1,0,0,539,507
0,1,1,0,0,538,508
1,1,1,0,0,537,512
2,1,1,0,0,537,510
3,1,1,0,0,536,513
4,1,1,0,0,536,509
5,1,1,0,0,536,509
6,1,1,0,0,536,513
7,1,1,0,0,536,511
8,1,1,0,0,535,514
9,1,1,0,0,535,509
10,1,1,0,0,536,508
11,1,1,0,0,536,513
12,1,1,0,0,535,511
13,1,1,0,0,534,514
14,1,1,0,0,535,510
15,1,1,0,0,535,512
0,1,1,0,0,535,513
1,1,1,0,0,535,512
2,1,1,0,0,535,510
3,1,1,0,0,536,510
4,1,1,0,0,537,510
5,1,1,0,0,537,514
6,1,1,0,0,538,513
7,1,1,0,0,537,511
8,1,1,0,0,537,511
9,1,1,0,0,537,513
10,1,1,0,0,537,513
11,1,1,0,0,537,513
12,1,1,0,0,538,511
13,1,1,0,0,538,511
14,1,1,0,0,538,513
15,1,1,0,0,537,514
0,1,1,0,0,537,511
1,1,1,0,0,537,511
2,1,1,0,0,537,512
3,1,1,0,0,537,515
4,1,1,0,0,538,514
5,1,1,0,0,539,513
6,1,1,0,0,540,517
7,1,1,0,0,542,512
8,1,1,0,0,543,514
9,1,1,0,0,543,514
10,1,1,0,0,544,512
11,1,1,0,0,544,511
12,1,1,0,0,544,510
13,1,1,0,0,544,512
14,1,1,0,0,544,513
15,1,1,0,0,544,512
0,1,1,0,0,543,510
1,1,1,0,0,542,511
2,1,1,0,0,542,512
3,1,1,0,0,543,510
4,1,1,0,0,542,514
5,1,1,0,0,542,511
6,1,1,0,0,541,511
7,1,1,0,0,540,515
8,1,1,0,0,540,510
9,1,1,0,0,540,513
10,1,1,0,0,540,510
11,1,1,0,0,540,510
12,1,1,0,0,540,512
13,1,1,0,0,540,513
14,1,1,0,0,541,512
15,1,1,0,0,541,511
0,1,1,0,0,540,510
1,1,1,0,0,540,512
2,1,1,0,0,540,513
3,1,1,0,0,540,510
4,1,1,0,0,539,511
5,1,1,0,0,538,511
6,1,1,0,0,537,513
7,1,1,0,0,537,513
8,1,1,0,0,536,511
9,1,1,0,0,535,512
10,1,1,0,0,532,511
11,1,1,0,0,531,513
12,1,1,0,0,530,513
13,1,1,0,0,531,511
14,1,1,0,0,531,512
15,1,1,0,0,531,511
0,1,1,0,0,531,513
1,1,1,0,0,531,512
2,1,1,0,0,531,511
3,1,1,0,0,531,511
4,1,1,0,0,530,511
5,1,1,0,0,529,513
6,1,1,0,0,529,513
7,1,1,0,0,528,510
8,1,1,0,0,528,510
9,1,1,0,0,527,509
10,1,1,0,0,527,513
11,1,1,0,0,526,511
12,1,1,0,0,526,509
13,1,1,0,0,526,510
14,1,1,0,0,525,508
15,1,1,0,0,527,511
0,1,1,0,0,528,511
1,1,1,0,0,529,509
2,1,1,0,0,531,510
3,1,1,0,0,533,509
4,1,1,0,0,536,512
5,1,1,0,0,537,509
6,1,1,0,0,539,513
7,1,1,0,0,539,509
8,1,1,0,0,539,510
9,1,1,0,0,539,514
10,1,1,0,0,540,508
11,1,1,0,0,540,514
12,1,1,0,0,541,509
13,1,1,0,0,542,510
14,1,1,0,0,542,513
15,1,1,0,0,542,510
0,1,1,0,0,542,514
1,1,1,0,0,543,510
2,1,1,0,0,544,511
3,1,1,0,0,545,513
4,1,1,0,0,544,513
5,1,1,0,0,546,510
6,1,1,0,0,547,512
7,1,1,0,0,547,510
8,1,1,0,0,548,509
9,1,1,0,0,550,513
10,1,1,0,0,550,512
11,1,1,0,0,550,510
12,1,1,0,0,551,510
13,1,1,0,0,550,512
14,1,1,0,0,550,513
15,1,1,0,0,550,512
0,1,1,0,0,550,511
1,1,1,0,0,550,509
2,1,1,0,0,550,510
3,1,1,0,0,550,514
4,1,1,0,0,549,512
5,1,1,0,0,549,510
6,1,1,0,0,548,511
7,1,1,0,0,548,514
8,1,1,0,0,548,511
9,1,1,0,0,548,511
10,1,1,0,0,550,509
11,1,1,0,0,550,507
12,1,1,0,0,550,510
13,1,1,0,0,550,511
14,1,1,0,0,548,509
15,1,1,0,0,547,508
0,1,1,0,0,546,508
1,1,1,0,0,545,511
2,1,1,0,0,545,510
3,1,1,0,0,544,508
4,1,1,0,0,543,508
5,1,1,0,0,542,509
6,1,1,0,0,542,512
7,1,1,0,0,540,507
8,1,1,0,0,539,511
9,1,1,0,0,539,507
10,1,1,0,0,536,508
11,1,1,0,0,535,509
12,1,1,0,0,533,510
13,1,1,0,0,531,509
14,1,1,0,0,530,507
15,1,1,0,0,529,507
0,1,1,0,0,528,509
1,1,1,0,0,527,508
2,1,1,0,0,526,509
3,1,1,0,0,525,508
4,1,1,0,0,524,507
5,1,1,0,0,523,509
6,1,1,0,0,523,509
7,1,1,0,0,521,508
8,1,1,0,0,520,508
9,1,1,0,0,518,508
10,1,1,0,0,517,506
11,1,1,0,0,516,511
12,1,1,0,0,514,508
13,1,1,0,0,513,506
14,1,1,0,0,512,506
15,1,1,0,0,512,508
0,1,1,0,0,510,510
1,1,1,0,0,508,508
2,1,1,0,0,506,507
3,1,1,0,0,504,506
4,1,1,0,0,504,506
5,1,1,0,0,503,510
6,1,1,0,0,503,508
7,1,1,0,0,503,510
8,1,1,0,0,502,506
9,1,1,0,0,500,504
10,1,1,0,0,498,511
11,1,1,0,0,497,508
12,1,1,0,0,496,506
13,1,1,0,0,494,506
14,1,1,0,0,493,509
15,1,1,0,0,492,510
0,1,1,0,0,490,506
1,1,1,0,0,489,506
2,1,1,0,0,488,506
3,1,1,0,0,486,509
4,1,1,0,0,486,509
5,1,1,0,0,485,507
6,1,1,0,0,485,506
7,1,1,0,0,485,508
8,1,1,0,0,485,512
9,1,1,0,0,486,507
10,1,1,0,0,483,511
11,1,1,0,0,483,507
12,1,1,0,0,484,507
13,1,1,0,0,483,510
14,1,1,0,0,481,511
15,1,1,0,0,480,510
0,1,1,0,0,478,508
1,1,1,0,0,476,508
2,1,1,0,0,474,510
3,1,1,0,0,472,508
4,1,1,0,0,470,513
5,1,1,0,0,469,509
6,1,1,0,0,467,509
7,1,1,0,0,466,513
8,1,1,0,0,465,508
9,1,1,0,0,464,511
10,1,1,0,0,464,508
11,1,1,0,0,463,509
12,1,1,0,0,462,511
13,1,1,0,0,461,512
14,1,1,0,0,460,511
15,1,1,0,0,460,510
0,1,1,0,0,459,509
1,1,1,0,0,459,511
2,1,1,0,0,459,512
3,1,1,0,0,458,509
4,1,1,0,0,458,510
5,1,1,0,0,458,510
6,1,1,0,0,457,510
7,1,1,0,0,457,514
8,1,1,0,0,456,509
9,1,1,0,0,456,510
10,1,1,0,0,456,509
11,1,1,0,0,457,511
12,1,1,0,0,457,511
13,1,1,0,0,457,509
14,1,1,0,0,459,511
15,1,1,0,0,458,510
0,1,1,0,0,458,510
1,1,1,0,0,458,514
2,1,1,0,0,459,512
3,1,1,0,0,459,515
4,1,1,0,0,459,512
5,1,1,0,0,459,511
6,1,1,0,0,458,515
7,1,1,0,0,457,512
8,1,1,0,0,457,516
9,1,1,0,0,458,511
10,1,1,0,0,458,510
11,1,1,0,0,459,515
12,1,1,0,0,459,513
13,1,1,0,0,459,512
14,1,1,0,0,459,511
15,1,1,0,0,459,514
0,1,1,0,0,460,514
1,1,1,0,0,461,514
2,1,1,0,0,462,512
3,1,1,0,0,462,513
4,1,1,0,0,463,515
5,1,1,0,0,463,515
6,1,1,0,0,464,514
7,1,1,0,0,465,514
8,1,1,0,0,467,514
9,1,1,0,0,467,513
10,1,1,0,0,467,518
11,1,1,0,0,468,514
12,1,1,0,0,468,513
13,1,1,0,0,468,513
14,1,1,0,0,469,516
15,1,1,0,0,470,516
0,1,1,0,0,471,516
1,1,1,0,0,471,515
2,1,1,0,0,472,513
3,1,1,0,0,473,514
4,1,1,0,0,473,518
5,1,1,0,0,472,515
6,1,1,0,0,473,520
7,1,1,0,0,474,513
8,1,1,0,0,474,513
9,1,1,0,0,474,518
10,1,1,0,0,475,516
11,1,1,0,0,477,514
12,1,1,0,0,478,514
13,1,1,0,0,479,516
14,1,1,0,0,479,517
15,1,1,0,0,480,515
0,1,1,0,0,481,514
1,1,1,0,0,481,514
2,1,1,0,0,482,516
3,1,1,0,0,482,516
4,1,1,0,0,481,514
5,1,1,0,0,481,514
6,1,1,0,0,481,514
7,1,1,0,0,482,518
8,1,1,0,0,482,513
9,1,1,0,0,482,518
10,1,1,0,0,481,514
11,1,1,0,0,481,512
12,1,1,0,0,481,514
13,1,1,0,0,482,514
14,1,1,0,0,484,512
15,1,1,0,0,485,514
0,1,1,0,0,486,512
1,1,1,0,0,486,515
2,1,1,0,0,486,515
3,1,1,0,0,487,512
4,1,1,0,0,489,514
5,1,1,0,0,490,512
6,1,1,0,0,490,516
7,1,1,0,0,491,514
8,1,1,0,0,492,511
9,1,1,0,0,493,511
10,1,1,0,0,494,511
11,1,1,0,0,496,514
12,1,1,0,0,498,512
13,1,1,0,0,499,510
14,1,1,0,0,500,511
15,1,1,0,0,502,510
0,1,1,0,0,502,513
1,1,1,0,0,503,511
2,1,1,0,0,505,515
3,1,1,0,0,505,513
4,1,1,0,0,506,511
5,1,1,0,0,505,513
6,1,1,0,0,505,513
7,1,1,0,0,504,510
8,1,1,0,0,502,511
9,1,1,0,0,500,510
10,1,1,0,0,499,512
11,1,1,0,0,500,511
12,1,1,0,0,502,509
13,1,1,0,0,503,510
14,1,1,0,0,503,509
15,1,1,0,0,503,511
0,1,1,0,0,503,512
1,1,1,0,0,503,509
2,1,1,0,0,504,511
3,1,1,0,0,504,509
4,1,1,0,0,505,512
5,1,1,0,0,505,512
6,1,1,0,0,507,510
7,1,1,0,0,508,511
8,1,1,0,0,508,509
9,1,1,0,0,509,512
10,1,1,0,0,510,510
11,1,1,0,0,510,507
12,1,1,0,0,511,509
13,1,1,0,0,513,508
14,1,1,0,0,516,510
15,1,1,0,0,519,511
0,1,1,0,0,519,508
1,1,1,0,0,520,510
2,1,1,0,0,522,508
3,1,1,0,0,521,509
4,1,1,0,0,521,512
5,1,1,0,0,522,509
6,1,1,0,0,523,511
7,1,1,0,0,522,509
8,1,1,0,0,523,512
9,1,1,0,0,524,512
10,1,1,0,0,525,508
11,1,1,0,0,525,509
12,1,1,0,0,525,508
13,1,1,0,0,525,508
14,1,1,0,0,524,512
15,1,1,0,0,524,510
0,1,1,0,0,524,514
1,1,1,0,0,524,509
2,1,1,0,0,524,509
3,1,1,0,0,525,514
4,1,1,0,0,527,511
5,1,1,0,0,527,511
6,1,1,0,0,530,510
7,1,1,0,0,530,510
8,1,1,0,0,530,515
9,1,1,0,0,531,508
10,1,1,0,0,531,510
11,1,1,0,0,532,510
12,1,1,0,0,532,510
13,1,1,0,0,533,513
14,1,1,0,0,533,512
15,1,1,0,0,533,511
0,1,1,0,0,533,511
1,1,1,0,0,532,511
2,1,1,0,0,532,514
3,1,1,0,0,531,510
4,1,1,0,0,531,512
5,1,1,0,0,531,512
6,1,1,0,0,529,511
7,1,1,0,0,528,515
8,1,1,0,0,527,514
9,1,1,0,0,526,511
10,1,1,0,0,524,510
11,1,1,0,0,523,513
12,1,1,0,0,522,514
13,1,1,0,0,522,513
14,1,1,0,0,523,512
15,1,1,0,0,523,511
0,1,1,0,0,523,513
1,1,1,0,0,523,513
2,1,1,0,0,522,511
3,1,1,0,0,522,512
4,1,1,0,0,523,510
5,1,1,0,0,523,511
6,1,1,0,0,523,515
7,1,1,0,0,522,511
8,1,1,0,0,520,515
9,1,1,0,0,519,509
10,1,1,0,0,517,508
11,1,1,0,0,517,514
12,1,1,0,0,517,511
13,1,1,0,0,518,509
14,1,1,0,0,519,509
15,1,1,0,0,519,512
0,1,1,0,0,519,513
1,1,1,0,0,521,509
2,1,1,0,0,520,509
3,1,1,0,0,520,509
4,1,1,0,0,521,511
5,1,1,0,0,523,512
6,1,1,0,0,523,509
7,1,1,0,0,524,508
8,1,1,0,0,524,509
9,1,1,0,0,524,513
10,1,1,0,0,526,509
11,1,1,0,0,528,513
12,1,1,0,0,530,509
13,1,1,0,0,531,509
14,1,1,0,0,531,511
15,1,1,0,0,532,512
0,1,1,0,0,532,511
1,1,1,0,0,532,509
2,1,1,0,0,532,509
3,1,1,0,0,532,512
4,1,1,0,0,532,509
5,1,1,0,0,534,514
6,1,1,0,0,536,509
7,1,1,0,0,537,509
8,1,1,0,0,540,513
9,1,1,0,0,543,508
10,1,1,0,0,544,511
11,1,1,0,0,547,508
12,1,1,0,0,547,508
13,1,1,0,0,547,510
14,1,1,0,0,550,511
15,1,1,0,0,553,510
0,1,1,0,0,554,508
1,1,1,0,0,556,507
2,1,1,0,0,559,509
3,1,1,0,0,561,510
4,1,1,0,0,563,507
5,1,1,0,0,563,508
6,1,1,0,0,562,508
7,1,1,0,0,561,507
8,1,1,0,0,563,512
9,1,1,0,0,564,508
10,1,1,0,0,564,512
11,1,1,0,0,567,506
12,1,1,0,0,568,509
13,1,1,0,0,568,510
14,1,1,0,0,569,509
15,1,1,0,0,571,507
0,1,1,0,0,572,507
1,1,1,0,0,572,508
2,1,1,0,0,576,510
3,1,1,0,0,580,508
4,1,1,0,0,587,508
5,1,1,0,0,595,508
6,1,1,0,0,601,509
7,1,1,0,0,608,509
8,1,1,0,0,613,505
9,1,1,0,0,619,505
10,1,1,0,0,626,506
11,1,1,0,0,632,508
12,1,1,0,0,639,506
13,1,1,0,0,643,510
14,1,1,0,0,647,506
15,1,1,0,0,651,507
0,1,1,0,0,652,508
1,1,1,0,0,654,510
2,1,1,0,0,655,508
3,1,1,0,0,656,508
4,1,1,0,0,655,508
5,1,1,0,0,653,510
6,1,1,0,0,650,507
7,1,1,0,0,644,511
8,1,1,0,0,636,506
9,1,1,0,0,625,507
10,1,1,0,0,612,509
11,1,1,0,0,595,510
12,1,1,0,0,580,508
13,1,1,0,0,564,506
14,1,1,0,0,549,506
15,1,1,0,0,536,508
0,1,1,0,0,525,510
1,1,1,0,0,513,507
2,1,1,0,0,496,508
3,1,1,0,0,478,507
4,1,1,0,0,456,508
5,1,1,0,0,434,506
6,1,1,0,0,408,512
7,1,1,0,0,376,507
8,1,1,0,0,343,508
9,1,1,0,0,315,511
10,1,1,0,0,293,507
11,1,1,0,0,273,509
12,1,1,0,0,258,507
13,1,1,0,0,251,507
14,1,1,0,0,247,509
15,1,1,0,0,242,510
0,1,1,0,0,236,509
1,1,1,0,0,234,508
2,1,1,0,0,236,507
3,1,1,0,0,243,510
4,1,1,0,0,255,509
5,1,1,0,0,269,507
6,1,1,0,0,286,509
7,1,1,0,0,302,507
8,1,1,0,0,318,508
9,1,1,0,0,335,512
10,1,1,0,0,353,508
11,1,1,0,0,371,513
12,1,1,0,0,392,508
13,1,1,0,0,414,511
14,1,1,0,0,435,511
15,1,1,0,0,457,510
0,1,1,0,0,477,508
1,1,1,0,0,492,508
2,1,1,0,0,508,509
3,1,1,0,0,522,513
4,1,1,0,0,533,511
5,1,1,0,0,544,509
6,1,1,0,0,555,510
7,1,1,0,0,563,511
8,1,1,0,0,573,511
9,1,1,0,0,581,511
10,1,1,0,0,588,509
11,1,1,0,0,591,507
12,1,1,0,0,594,511
13,1,1,0,0,595,511
14,1,1,0,0,597,508
15,1,1,0,0,598,508
0,1,1,0,0,597,508
1,1,1,0,0,598,510
2,1,1,0,0,596,511
3,1,1,0,0,595,508
4,1,1,0,0,593,508
5,1,1,0,0,591,509
6,1,1,0,0,588,513
7,1,1,0,0,586,508
8,1,1,0,0,584,512
9,1,1,0,0,582,508
10,1,1,0,0,580,508
11,1,1,0,0,577,511
12,1,1,0,0,575,511
13,1,1,0,0,574,509
14,1,1,0,0,574,507
15,1,1,0,0,574,508
0,1,1,0,0,574,509
1,1,1,0,0,574,511
2,1,1,0,0,574,507
3,1,1,0,0,575,509
4,1,1,0,0,574,508
5,1,1,0,0,574,510
6,1,1,0,0,572,508
7,1,1,0,0,571,513
8,1,1,0,0,570,508
9,1,1,0,0,569,508
10,1,1,0,0,569,512
11,1,1,0,0,568,508
12,1,1,0,0,565,512
13,1,1,0,0,562,508
14,1,1,0,0,560,508
15,1,1,0,0,560,510
0,1,1,0,0,560,512
1,1,1,0,0,563,510
2,1,1,0,0,563,509
3,1,1,0,0,564,509
4,1,1,0,0,566,511
5,1,1,0,0,567,511
6,1,1,0,0,569,511
7,1,1,0,0,569,510
8,1,1,0,0,570,510
9,1,1,0,0,572,514
10,1,1,0,0,574,511
11,1,1,0,0,573,512
12,1,1,0,0,573,509
13,1,1,0,0,572,509
14,1,1,0,0,571,511
15,1,1,0,0,572,513
0,1,1,0,0,571,509
1,1,1,0,0,573,509
2,1,1,0,0,571,510
3,1,1,0,0,573,513
4,1,1,0,0,575,512
5,1,1,0,0,575,510
6,1,1,0,0,576,515
7,1,1,0,0,576,510
8,1,1,0,0,575,513
9,1,1,0,0,575,515
10,1,1,0,0,574,512
11,1,1,0,0,573,510
12,1,1,0,0,572,510
13,1,1,0,0,571,512
14,1,1,0,0,569,512
15,1,1,0,0,567,512
0,1,1,0,0,564,511
1,1,1,0,0,562,510
2,1,1,0,0,561,512
3,1,1,0,0,561,513
4,1,1,0,0,560,512
5,1,1,0,0,558,511
6,1,1,0,0,556,510
7,1,1,0,0,556,510
8,1,1,0,0,555,515
9,1,1,0,0,555,511
10,1,1,0,0,554,510
11,1,1,0,0,553,508
12,1,1,0,0,552,512
13,1,1,0,0,552,512
14,1,1,0,0,550,511
15,1,1,0,0,548,511
0,1,1,0,0,545,509
1,1,1,0,0,543,512
2,1,1,0,0,541,512
3,1,1,0,0,538,510
4,1,1,0,0,535,511
5,1,1,0,0,533,510
6,1,1,0,0,532,510
7,1,1,0,0,533,514
8,1,1,0,0,533,511
9,1,1,0,0,531,515
10,1,1,0,0,529,509
11,1,1,0,0,529,508
12,1,1,0,0,529,513
13,1,1,0,0,531,511
14,1,1,0,0,531,509
15,1,1,0,0,532,509
0,1,1,0,0,532,512
1,1,1,0,0,531,513
2,1,1,0,0,530,509
3,1,1,0,0,529,510
4,1,1,0,0,527,510
5,1,1,0,0,525,512
6,1,1,0,0,524,512
7,1,1,0,0,523,510
8,1,1,0,0,522,510
9,1,1,0,0,522,510
10,1,1,0,0,522,514
11,1,1,0,0,522,510
12,1,1,0,0,523,514
13,1,1,0,0,524,510
14,1,1,0,0,523,510
15,1,1,0,0,524,513
0,1,1,0,0,524,514
1,1,1,0,0,524,512
2,1,1,0,0,526,511
3,1,1,0,0,527,511
4,1,1,0,0,527,513
5,1,1,0,0,526,511
6,1,1,0,0,524,514
7,1,1,0,0,524,511
8,1,1,0,0,524,511
9,1,1,0,0,523,513
10,1,1,0,0,522,512
11,1,1,0,0,522,508
12,1,1,0,0,522,511
13,1,1,0,0,521,509
14,1,1,0,0,521,511
15,1,1,0,0,522,512
0,1,1,0,0,523,509
1,1,1,0,0,524,511
2,1,1,0,0,525,509
3,1,1,0,0,526,512
4,1,1,0,0,526,512
5,1,1,0,0,527,510
6,1,1,0,0,528,511
7,1,1,0,0,527,508
8,1,1,0,0,527,512
9,1,1,0,0,528,510
10,1,1,0,0,529,507
11,1,1,0,0,531,508
12,1,1,0,0,531,506
13,1,1,0,0,530,509
14,1,1,0,0,529,509
15,1,1,0,0,528,507
0,1,1,0,0,531,508
1,1,1,0,0,531,507
2,1,1,0,0,533,510
3,1,1,0,0,533,510
4,1,1,0,0,534,507
5,1,1,0,0,535,509
6,1,1,0,0,536,506
7,1,1,0,0,536,511
8,1,1,0,0,537,509
9,1,1,0,0,538,505
10,1,1,0,0,537,507
11,1,1,0,0,536,507
12,1,1,0,0,536,510
13,1,1,0,0,534,510
14,1,1,0,0,533,507
15,1,1,0,0,534,509
0,1,1,0,0,533,507
1,1,1,0,0,532,508
2,1,1,0,0,532,510
3,1,1,0,0,532,507
4,1,1,0,0,531,508
5,1,1,0,0,531,507
6,1,1,0,0,530,511
7,1,1,0,0,530,509
8,1,1,0,0,531,505
9,1,1,0,0,533,507
10,1,1,0,0,533,505
11,1,1,0,0,532,509
12,1,1,0,0,531,507
13,1,1,0,0,530,505
14,1,1,0,0,532,507
15,1,1,0,0,531,505
0,1,1,0,0,531,508
1,1,1,0,0,532,509
2,1,1,0,0,532,506
3,1,1,0,0,530,506
4,1,1,0,0,528,507
5,1,1,0,0,527,509
6,1,1,0,0,526,510
7,1,1,0,0,525,506
8,1,1,0,0,524,508
9,1,1,0,0,523,506
10,1,1,0,0,521,510
11,1,1,0,0,520,508
12,1,1,0,0,519,505
13,1,1,0,0,518,508
14,1,1,0,0,516,506
15,1,1,0,0,516,508
0,1,1,0,0,516,510
1,1,1,0,0,513,507
2,1,1,0,0,511,508
3,1,1,0,0,509,507
4,1,1,0,0,506,510
5,1,1,0,0,503,510
6,1,1,0,0,501,507
7,1,1,0,0,500,508
8,1,1,0,0,496,507
9,1,1,0,0,493,510
10,1,1,0,0,491,509
11,1,1,0,0,487,505
12,1,1,0,0,486,506
13,1,1,0,0,484,507
14,1,1,0,0,482,510
15,1,1,0,0,480,510
0,1,1,0,0,478,507
1,1,1,0,0,476,508
2,1,1,0,0,476,509
3,1,1,0,0,477,511
4,1,1,0,0,479,510
5,1,1,0,0,478,513
6,1,1,0,0,476,510
7,1,1,0,0,476,511
8,1,1,0,0,477,513
9,1,1,0,0,476,511
10,1,1,0,0,475,516
11,1,1,0,0,473,510
12,1,1,0,0,472,511
13,1,1,0,0,472,513
14,1,1,0,0,472,511
15,1,1,0,0,470,515
0,1,1,0,0,470,512
1,1,1,0,0,472,512
2,1,1,0,0,471,514
3,1,1,0,0,470,513
4,1,1,0,0,468,518
5,1,1,0,0,468,513
6,1,1,0,0,468,514
7,1,1,0,0,468,516
8,1,1,0,0,469,514
9,1,1,0,0,469,518
10,1,1,0,0,471,514
11,1,1,0,0,473,515
12,1,1,0,0,474,516
13,1,1,0,0,474,516
14,1,1,0,0,476,516
15,1,1,0,0,477,514
0,1,1,0,0,478,514
1,1,1,0,0,478,517
2,1,1,0,0,478,515
3,1,1,0,0,477,519
4,1,1,0,0,477,515
5,1,1,0,0,476,516
6,1,1,0,0,476,515
7,1,1,0,0,476,519
8,1,1,0,0,478,518
9,1,1,0,0,477,515
10,1,1,0,0,476,514
11,1,1,0,0,478,517
12,1,1,0,0,477,519
13,1,1,0,0,479,517
14,1,1,0,0,481,516
15,1,1,0,0,483,514
0,1,1,0,0,485,518
1,1,1,0,0,486,517
2,1,1,0,0,487,515
3,1,1,0,0,488,516
4,1,1,0,0,487,515
5,1,1,0,0,487,515
6,1,1,0,0,485,519
7,1,1,0,0,484,516
8,1,1,0,0,481,520
9,1,1,0,0,480,515
10,1,1,0,0,479,517
11,1,1,0,0,479,519
12,1,1,0,0,478,518
13,1,1,0,0,479,515
14,1,1,0,0,478,515
15,1,1,0,0,478,518
0,1,1,0,0,480,518
1,1,1,0,0,482,518
2,1,1,0,0,484,517
3,1,1,0,0,486,516
4,1,1,0,0,488,518
5,1,1,0,0,487,519
6,1,1,0,0,486,518
7,1,1,0,0,485,518
8,1,1,0,0,485,517
9,1,1,0,0,485,516
10,1,1,0,0,484,522
11,1,1,0,0,482,515
12,1,1,0,0,481,517
13,1,1,0,0,481,516
14,1,1,0,0,481,518
15,1,1,0,0,482,520
0,1,1,0,0,482,519
1,1,1,0,0,481,516
2,1,1,0,0,482,516
3,1,1,0,0,480,519
4,1,1,0,0,481,516
5,1,1,0,0,483,522
6,1,1,0,0,486,517
7,1,1,0,0,487,517
8,1,1,0,0,488,517
9,1,1,0,0,488,521
10,1,1,0,0,490,518
11,1,1,0,0,489,516
12,1,1,0,0,489,516
13,1,1,0,0,487,518
14,1,1,0,0,487,519
15,1,1,0,0,487,518
0,1,1,0,0,487,518
1,1,1,0,0,486,516
2,1,1,0,0,486,516
3,1,1,0,0,484,520
4,1,1,0,0,482,519
5,1,1,0,0,482,516
6,1,1,0,0,481,517
7,1,1,0,0,483,519
8,1,1,0,0,484,519
9,1,1,0,0,486,519
10,1,1,0,0,488,517
11,1,1,0,0,491,514
12,1,1,0,0,492,518
13,1,1,0,0,492,519
14,1,1,0,0,494,515
15,1,1,0,0,494,515
0,1,1,0,0,494,515
1,1,1,0,0,494,517
2,1,1,0,0,494,517
3,1,1,0,0,495,515
4,1,1,0,0,493,515
5,1,1,0,0,491,516
6,1,1,0,0,490,519
7,1,1,0,0,489,515
8,1,1,0,0,489,519
9,1,1,0,0,488,514
10,1,1,0,0,489,514
11,1,1,0,0,491,517
12,1,1,0,0,493,517
13,1,1,0,0,493,516
14,1,1,0,0,494,513
15,1,1,0,0,496,513
0,1,1,0,0,496,515
1,1,1,0,0,495,517
2,1,1,0,0,494,513
3,1,1,0,0,494,515
4,1,1,0,0,494,513
5,1,1,0,0,494,515
6,1,1,0,0,493,514
7,1,1,0,0,492,519
8,1,1,0,0,493,513
9,1,1,0,0,495,513
10,1,1,0,0,496,517
11,1,1,0,0,496,513
12,1,1,0,0,496,516
13,1,1,0,0,497,513
14,1,1,0,0,496,512
15,1,1,0,0,497,515
0,1,1,0,0,499,516
1,1,1,0,0,501,515
2,1,1,0,0,504,514
3,1,1,0,0,504,512
4,1,1,0,0,505,512
5,1,1,0,0,505,516
6,1,1,0,0,508,515
7,1,1,0,0,512,512
8,1,1,0,0,512,512
9,1,1,0,0,512,515
10,1,1,0,0,511,515
11,1,1,0,0,510,511
12,1,1,0,0,509,511
13,1,1,0,0,508,512
14,1,1,0,0,508,514
15,1,1,0,0,508,514
0,1,1,0,0,508,513
1,1,1,0,0,509,513
2,1,1,0,0,510,512
3,1,1,0,0,512,514
4,1,1,0,0,513,513
5,1,1,0,0,514,514
6,1,1,0,0,515,511
7,1,1,0,0,516,512
8,1,1,0,0,516,513
9,1,1,0,0,517,513
10,1,1,0,0,517,514
11,1,1,0,0,518,511
12,1,1,0,0,518,511
13,1,1,0,0,516,513
14,1,1,0,0,514,515
15,1,1,0,0,512,510
0,1,1,0,0,511,510
1,1,1,0,0,510,511
2,1,1,0,0,511,513
3,1,1,0,0,514,513
4,1,1,0,0,513,510
5,1,1,0,0,512,509
6,1,1,0,0,511,511
7,1,1,0,0,510,514
8,1,1,0,0,510,510
9,1,1,0,0,511,513
10,1,1,0,0,512,509
11,1,1,0,0,511,508
12,1,1,0,0,511,512
13,1,1,0,0,512,512
14,1,1,0,0,513,511
15,1,1,0,0,512,508
0,1,1,0,0,512,508
1,1,1,0,0,511,510
2,1,1,0,0,510,508
3,1,1,0,0,509,512
4,1,1,0,0,508,508
5,1,1,0,0,506,508
6,1,1,0,0,504,509
7,1,1,0,0,504,511
8,1,1,0,0,503,511
9,1,1,0,0,502,508
10,1,1,0,0,504,506
11,1,1,0,0,509,510
12,1,1,0,0,511,511
13,1,1,0,0,512,509
14,1,1,0,0,513,508
15,1,1,0,0,515,507
0,1,1,0,0,518,509
1,1,1,0,0,523,509
2,1,1,0,0,527,506
3,1,1,0,0,526,508
4,1,1,0,0,525,507
5,1,1,0,0,526,507
6,1,1,0,0,525,512
7,1,1,0,0,520,508
8,1,1,0,0,518,511
9,1,1,0,0,515,506
10,1,1,0,0,514,509
11,1,1,0,0,513,510
12,1,1,0,0,515,509
13,1,1,0,0,518,507
14,1,1,0,0,520,507
15,1,1,0,0,519,510
0,1,1,0,0,519,510
1,1,1,0,0,520,509
2,1,1,0,0,522,508
3,1,1,0,0,523,507
4,1,1,0,0,525,509
5,1,1,0,0,526,509
6,1,1,0,0,526,509
7,1,1,0,0,526,508
8,1,1,0,0,527,507
9,1,1,0,0,527,511
10,1,1,0,0,528,509
11,1,1,0,0,527,505
12,1,1,0,0,527,508
13,1,1,0,0,527,507
14,1,1,0,0,526,509
15,1,1,0,0,526,509
0,1,1,0,0,526,506
1,1,1,0,0,528,508
2,1,1,0,0,529,507
3,1,1,0,0,530,509
4,1,1,0,0,533,510
5,1,1,0,0,535,507
6,1,1,0,0,536,508
7,1,1,0,0,537,505
8,1,1,0,0,537,509
9,1,1,0,0,537,508
10,1,1,0,0,536,506
11,1,1,0,0,537,506
12,1,1,0,0,538,506
13,1,1,0,0,539,506
14,1,1,0,0,539,509
15,1,1,0,0,538,507
0,1,1,0,0,540,508
1,1,1,0,0,543,507
2,1,1,0,0,545,509
3,1,1,0,0,548,510
4,1,1,0,0,552,509
5,1,1,0,0,560,513
6,1,1,0,0,567,508
7,1,1,0,0,574,508
8,1,1,0,0,579,512
9,1,1,0,0,583,509
10,1,1,0,0,588,513
11,1,1,0,0,591,507
12,1,1,0,0,591,506
13,1,1,0,0,591,511
14,1,1,0,0,591,509
15,1,1,0,0,590,507
0,1,1,0,0,585,507
1,1,1,0,0,581,510
2,1,1,0,0,576,511
3,1,1,0,0,569,507
4,1,1,0,0,561,507
5,1,1,0,0,551,508
6,1,1,0,0,538,511
7,1,1,0,0,527,510
8,1,1,0,0,516,509
9,1,1,0,0,506,513
10,1,1,0,0,498,507
11,1,1,0,0,489,510
12,1,1,0,0,484,510
13,1,1,0,0,481,508
14,1,1,0,0,480,509
15,1,1,0,0,476,508
0,1,1,0,0,463,510
1,1,1,0,0,448,510
2,1,1,0,0,432,507
3,1,1,0,0,411,509
4,1,1,0,0,388,508
5,1,1,0,0,365,510
6,1,1,0,0,349,511
7,1,1,0,0,334,507
8,1,1,0,0,323,508
9,1,1,0,0,315,507
10,1,1,0,0,309,511
11,1,1,0,0,305,508
12,1,1,0,0,299,506
13,1,1,0,0,293,508
14,1,1,0,0,290,507
15,1,1,0,0,291,509
0,1,1,0,0,297,510
1,1,1,0,0,310,507
2,1,1,0,0,324,507
3,1,1,0,0,338,508
4,1,1,0,0,353,511
5,1,1,0,0,368,511
6,1,1,0,0,382,507
7,1,1,0,0,396,508
8,1,1,0,0,408,506
9,1,1,0,0,418,510
10,1,1,0,0,431,508
11,1,1,0,0,445,505
12,1,1,0,0,459,507
13,1,1,0,0,476,506
14,1,1,0,0,488,509
15,1,1,0,0,499,509
0,1,1,0,0,511,506
1,1,1,0,0,522,508
2,1,1,0,0,532,507
3,1,1,0,0,543,510
4,1,1,0,0,555,510
5,1,1,0,0,564,508
6,1,1,0,0,571,508
7,1,1,0,0,577,506
8,1,1,0,0,580,510
9,1,1,0,0,583,508
10,1,1,0,0,583,505
11,1,1,0,0,583,506
12,1,1,0,0,582,505
13,1,1,0,0,581,506
14,1,1,0,0,578,510
15,1,1,0,0,577,505
0,1,1,0,0,575,507
1,1,1,0,0,569,506
2,1,1,0,0,563,509
3,1,1,0,0,562,509
4,1,1,0,0,563,507
5,1,1,0,0,566,509
6,1,1,0,0,568,507
7,1,1,0,0,571,508
8,1,1,0,0,574,512
9,1,1,0,0,577,509
10,1,1,0,0,575,509
11,1,1,0,0,576,508
12,1,1,0,0,579,508
13,1,1,0,0,585,511
14,1,1,0,0,586,510
15,1,1,0,0,584,510
0,1,1,0,0,583,509
1,1,1,0,0,581,509
2,1,1,0,0,579,513
3,1,1,0,0,575,508
4,1,1,0,0,573,511
5,1,1,0,0,570,511
6,1,1,0,0,565,510
7,1,1,0,0,563,514
8,1,1,0,0,562,512
9,1,1,0,0,563,512
10,1,1,0,0,564,511
11,1,1,0,0,566,512
12,1,1,0,0,569,513
13,1,1,0,0,575,511
14,1,1,0,0,579,516
15,1,1,0,0,582,511
0,1,1,0,0,583,511
1,1,1,0,0,586,515
2,1,1,0,0,587,513
3,1,1,0,0,588,513
4,1,1,0,0,585,512
5,1,1,0,0,583,515
6,1,1,0,0,582,513
7,1,1,0,0,579,515
8,1,1,0,0,575,512
9,1,1,0,0,570,511
10,1,1,0,0,566,514
11,1,1,0,0,565,515
12,1,1,0,0,566,513
13,1,1,0,0,565,511
14,1,1,0,0,567,511
15,1,1,0,0,570,513
0,1,1,0,0,574,515
1,1,1,0,0,577,511
2,1,1,0,0,578,512
3,1,1,0,0,580,511
4,1,1,0,0,582,513
5,1,1,0,0,583,512
6,1,1,0,0,584,516
7,1,1,0,0,582,511
8,1,1,0,0,580,511
9,1,1,0,0,577,515
10,1,1,0,0,573,511
11,1,1,0,0,567,513
12,1,1,0,0,562,511
13,1,1,0,0,558,510
14,1,1,0,0,555,512
15,1,1,0,0,550,514
0,1,1,0,0,547,512
1,1,1,0,0,546,511
2,1,1,0,0,545,510
3,1,1,0,0,544,513
4,1,1,0,0,543,512
5,1,1,0,0,545,510
6,1,1,0,0,545,512
7,1,1,0,0,544,510
8,1,1,0,0,544,511
9,1,1,0,0,544,515
10,1,1,0,0,543,511
11,1,1,0,0,544,515
12,1,1,0,0,542,511
13,1,1,0,0,539,513
14,1,1,0,0,536,514
15,1,1,0,0,531,513
0,1,1,0,0,529,510
1,1,1,0,0,527,511
2,1,1,0,0,526,511
3,1,1,0,0,526,515
4,1,1,0,0,528,513
5,1,1,0,0,529,511
6,1,1,0,0,531,512
7,1,1,0,0,534,514
8,1,1,0,0,537,513
9,1,1,0,0,541,513
10,1,1,0,0,545,511
11,1,1,0,0,546,508
12,1,1,0,0,548,512
13,1,1,0,0,553,514
14,1,1,0,0,554,510
15,1,1,0,0,555,510
0,1,1,0,0,555,510
1,1,1,0,0,553,512
2,1,1,0,0,551,512
3,1,1,0,0,548,510
4,1,1,0,0,547,510
5,1,1,0,0,545,511
6,1,1,0,0,542,515
7,1,1,0,0,541,510
8,1,1,0,0,543,514
9,1,1,0,0,543,508
10,1,1,0,0,545,509
11,1,1,0,0,548,511
12,1,1,0,0,551,512
13,1,1,0,0,552,511
14,1,1,0,0,553,508
15,1,1,0,0,559,509
0,1,1,0,0,563,511
1,1,1,0,0,567,513
2,1,1,0,0,570,508
3,1,1,0,0,573,510
4,1,1,0,0,572,508
5,1,1,0,0,571,511
6,1,1,0,0,566,509
7,1,1,0,0,563,514
8,1,1,0,0,561,509
9,1,1,0,0,558,509
10,1,1,0,0,556,513
11,1,1,0,0,556,509
12,1,1,0,0,555,511
13,1,1,0,0,555,508
14,1,1,0,0,556,508
15,1,1,0,0,558,510
0,1,1,0,0,560,512
1,1,1,0,0,564,510
2,1,1,0,0,567,509
3,1,1,0,0,566,508
4,1,1,0,0,567,508
5,1,1,0,0,568,512
6,1,1,0,0,566,511
7,1,1,0,0,564,510
8,1,1,0,0,561,508
9,1,1,0,0,556,511
10,1,1,0,0,550,509
11,1,1,0,0,543,512
12,1,1,0,0,541,508
13,1,1,0,0,537,508
14,1,1,0,0,531,510
15,1,1,0,0,526,511
0,1,1,0,0,522,510
1,1,1,0,0,519,507
2,1,1,0,0,518,508
3,1,1,0,0,519,511
4,1,1,0,0,521,510
5,1,1,0,0,523,507
6,1,1,0,0,525,510
7,1,1,0,0,526,508
8,1,1,0,0,527,510
9,1,1,0,0,528,512
10,1,1,0,0,527,510
11,1,1,0,0,524,507
12,1,1,0,0,520,507
13,1,1,0,0,516,510
14,1,1,0,0,512,509
15,1,1,0,0,510,510
0,1,1,0,0,507,508
1,1,1,0,0,501,507
2,1,1,0,0,497,510
3,1,1,0,0,497,510
4,1,1,0,0,499,509
5,1,1,0,0,500,508
6,1,1,0,0,499,507
7,1,1,0,0,501,507
8,1,1,0,0,506,513
9,1,1,0,0,510,508
10,1,1,0,0,512,512
11,1,1,0,0,515,506
12,1,1,0,0,519,507
13,1,1,0,0,520,510
14,1,1,0,0,518,510
15,1,1,0,0,518,507
0,1,1,0,0,517,508
1,1,1,0,0,515,511
2,1,1,0,0,511,510
3,1,1,0,0,507,508
4,1,1,0,0,505,510
5,1,1,0,0,500,508
6,1,1,0,0,496,510
7,1,1,0,0,494,512
8,1,1,0,0,491,510
9,1,1,0,0,491,513
10,1,1,0,0,489,507
11,1,1,0,0,488,510
12,1,1,0,0,488,511
13,1,1,0,0,492,510
14,1,1,0,0,494,507
15,1,1,0,0,495,508
0,1,1,0,0,495,510
1,1,1,0,0,496,510
2,1,1,0,0,495,509
3,1,1,0,0,494,509
4,1,1,0,0,489,508
5,1,1,0,0,481,511
6,1,1,0,0,477,510
7,1,1,0,0,474,513
8,1,1,0,0,471,508
9,1,1,0,0,468,508
10,1,1,0,0,467,511
11,1,1,0,0,465,512
12,1,1,0,0,462,510
13,1,1,0,0,457,508
14,1,1,0,0,458,508
15,1,1,0,0,461,511
0,1,1,0,0,460,512
1,1,1,0,0,463,508
2,1,1,0,0,466,510
3,1,1,0,0,471,509
4,1,1,0,0,473,511
5,1,1,0,0,474,510
6,1,1,0,0,473,513
7,1,1,0,0,473,510
8,1,1,0,0,472,508
9,1,1,0,0,470,512
10,1,1,0,0,468,510
11,1,1,0,0,465,507
12,1,1,0,0,465,509
13,1,1,0,0,463,508
14,1,1,0,0,463,510
15,1,1,0,0,467,509
0,1,1,0,0,469,513
1,1,1,0,0,464,509
2,1,1,0,0,463,510
3,1,1,0,0,467,512
4,1,1,0,0,470,511
5,1,1,0,0,473,515
6,1,1,0,0,478,511
7,1,1,0,0,482,511
8,1,1,0,0,483,514
9,1,1,0,0,487,511
10,1,1,0,0,488,512
11,1,1,0,0,487,510
12,1,1,0,0,486,510
13,1,1,0,0,486,511
14,1,1,0,0,484,512
15,1,1,0,0,483,509
0,1,1,0,0,482,510
1,1,1,0,0,480,510
2,1,1,0,0,478,510
3,1,1,0,0,477,515
4,1,1,0,0,477,513
5,1,1,0,0,478,510
6,1,1,0,0,480,512
7,1,1,0,0,484,514
8,1,1,0,0,489,513
9,1,1,0,0,493,514
10,1,1,0,0,496,512
11,1,1,0,0,502,509
12,1,1,0,0,504,513
13,1,1,0,0,505,515
14,1,1,0,0,506,511
15,1,1,0,0,506,511
0,1,1,0,0,505,511
1,1,1,0,0,503,513
2,1,1,0,0,501,513
3,1,1,0,0,500,511
4,1,1,0,0,500,512
5,1,1,0,0,497,512
6,1,1,0,0,492,516
7,1,1,0,0,491,514
8,1,1,0,0,494,510
9,1,1,0,0,493,511
10,1,1,0,0,496,510
11,1,1,0,0,501,514
12,1,1,0,0,505,512
13,1,1,0,0,510,510
14,1,1,0,0,513,511
15,1,1,0,0,520,511
0,1,1,0,0,525,512
1,1,1,0,0,530,513
2,1,1,0,0,531,511
3,1,1,0,0,532,512
4,1,1,0,0,533,511
5,1,1,0,0,532,513
6,1,1,0,0,531,514
7,1,1,0,0,525,510
8,1,1,0,0,521,512
9,1,1,0,0,519,509
10,1,1,0,0,516,514
11,1,1,0,0,512,512
12,1,1,0,0,509,510
13,1,1,0,0,512,511
14,1,1,0,0,512,511
15,1,1,0,0,514,513
0,1,1,0,0,518,514
1,1,1,0,0,521,511
2,1,1,0,0,527,512
3,1,1,0,0,530,511
4,1,1,0,0,532,514
5,1,1,0,0,531,514
6,1,1,0,0,529,511
7,1,1,0,0,526,511
8,1,1,0,0,524,511
9,1,1,0,0,520,516
10,1,1,0,0,514,512
11,1,1,0,0,511,516
12,1,1,0,0,507,512
13,1,1,0,0,503,513
14,1,1,0,0,500,515
15,1,1,0,0,499,514
0,1,1,0,0,497,517
1,1,1,0,0,495,513
2,1,1,0,0,494,513
3,1,1,0,0,496,516
4,1,1,0,0,497,516
5,1,1,0,0,502,513
6,1,1,0,0,504,515
7,1,1,0,0,506,513
8,1,1,0,0,510,513
9,1,1,0,0,507,517
10,1,1,0,0,507,514
11,1,1,0,0,508,514
12,1,1,0,0,509,513
13,1,1,0,0,504,516
14,1,1,0,0,499,516
15,1,1,0,0,497,514
0,1,1,0,0,493,515
1,1,1,0,0,488,514
2,1,1,0,0,484,516
3,1,1,0,0,479,517
4,1,1,0,0,474,514
5,1,1,0,0,472,515
6,1,1,0,0,473,513
7,1,1,0,0,476,517
8,1,1,0,0,480,515
9,1,1,0,0,480,512
10,1,1,0,0,483,513
11,1,1,0,0,485,511
12,1,1,0,0,488,514
13,1,1,0,0,490,515
14,1,1,0,0,491,512
15,1,1,0,0,489,513
0,1,1,0,0,487,513
1,1,1,0,0,486,513
2,1,1,0,0,480,516
3,1,1,0,0,476,513
4,1,1,0,0,474,514
5,1,1,0,0,469,513
6,1,1,0,0,468,517
7,1,1,0,0,467,515
8,1,1,0,0,464,511
9,1,1,0,0,464,512
10,1,1,0,0,462,511
11,1,1,0,0,464,513
12,1,1,0,0,467,515
13,1,1,0,0,472,511
14,1,1,0,0,473,513
15,1,1,0,0,475,512
0,1,1,0,0,475,515
1,1,1,0,0,476,514
2,1,1,0,0,478,511
3,1,1,0,0,476,513
4,1,1,0,0,476,512
5,1,1,0,0,478,515
6,1,1,0,0,476,515
7,1,1,0,0,474,510
8,1,1,0,0,471,512
9,1,1,0,0,467,510
10,1,1,0,0,464,514
11,1,1,0,0,462,511
12,1,1,0,0,462,515
13,1,1,0,0,461,512
14,1,1,0,0,463,511
15,1,1,0,0,465,513
0,1,1,0,0,469,513
1,1,1,0,0,474,511
2,1,1,0,0,477,512
3,1,1,0,0,479,512
4,1,1,0,0,481,512
5,1,1,0,0,483,516
6,1,1,0,0,485,513
7,1,1,0,0,485,516
8,1,1,0,0,485,510
9,1,1,0,0,483,511
10,1,1,0,0,480,515
11,1,1,0,0,475,513
12,1,1,0,0,473,517
13,1,1,0,0,471,511
14,1,1,0,0,470,512
15,1,1,0,0,471,516
0,1,1,0,0,472,514
1,1,1,0,0,473,517
2,1,1,0,0,474,512
3,1,1,0,0,474,512
4,1,1,0,0,476,517
5,1,1,0,0,476,514
6,1,1,0,0,475,518
7,1,1,0,0,479,513
8,1,1,0,0,481,515
9,1,1,0,0,483,517
10,1,1,0,0,483,515
11,1,1,0,0,480,512
12,1,1,0,0,476,512
13,1,1,0,0,474,514
14,1,1,0,0,473,514
15,1,1,0,0,470,513
0,1,1,0,0,466,512
1,1,1,0,0,471,511
2,1,1,0,0,471,513
3,1,1,0,0,468,514
4,1,1,0,0,469,513
5,1,1,0,0,473,513
6,1,1,0,0,476,511
7,1,1,0,0,476,511
8,1,1,0,0,480,514
9,1,1,0,0,485,509
10,1,1,0,0,484,511
11,1,1,0,0,485,510
12,1,1,0,0,483,512
13,1,1,0,0,483,514
14,1,1,0,0,484,512
15,1,1,0,0,484,510
0,1,1,0,0,483,509
1,1,1,0,0,481,512
2,1,1,0,0,478,514
3,1,1,0,0,477,509
4,1,1,0,0,474,510
5,1,1,0,0,473,509
6,1,1,0,0,469,512
7,1,1,0,0,472,510
8,1,1,0,0,472,513
9,1,1,0,0,472,510
10,1,1,0,0,477,507
11,1,1,0,0,477,511
12,1,1,0,0,479,510
13,1,1,0,0,482,507
14,1,1,0,0,486,508
15,1,1,0,0,487,507
0,1,1,0,0,487,509
1,1,1,0,0,487,508
2,1,1,0,0,489,511
3,1,1,0,0,489,506
4,1,1,0,0,487,508
5,1,1,0,0,484,509
6,1,1,0,0,483,508
7,1,1,0,0,478,513
8,1,1,0,0,475,507
9,1,1,0,0,479,508
10,1,1,0,0,480,511
11,1,1,0,0,477,508
12,1,1,0,0,480,510
13,1,1,0,0,482,507
14,1,1,0,0,486,505
15,1,1,0,0,488,508
0,1,1,0,0,486,508
1,1,1,0,0,487,504
2,1,1,0,0,492,507
3,1,1,0,0,494,505
4,1,1,0,0,496,508
5,1,1,0,0,496,507
6,1,1,0,0,496,510
7,1,1,0,0,495,507
8,1,1,0,0,495,507
9,1,1,0,0,498,509
10,1,1,0,0,498,508
11,1,1,0,0,501,511
12,1,1,0,0,502,507
13,1,1,0,0,504,508
14,1,1,0,0,504,510
15,1,1,0,0,511,511
0,1,1,0,0,519,510
1,1,1,0,0,524,507
2,1,1,0,0,532,508
3,1,1,0,0,538,511
4,1,1,0,0,545,509
5,1,1,0,0,552,507
6,1,1,0,0,557,508
7,1,1,0,0,563,508
8,1,1,0,0,564,511
9,1,1,0,0,565,512
10,1,1,0,0,562,510
11,1,1,0,0,563,507
12,1,1,0,0,561,507
13,1,1,0,0,559,509
14,1,1,0,0,556,508
15,1,1,0,0,551,509
0,1,1,0,0,546,507
1,1,1,0,0,537,507
2,1,1,0,0,528,509
3,1,1,0,0,519,509
4,1,1,0,0,508,508
5,1,1,0,0,490,508
6,1,1,0,0,478,506
7,1,1,0,0,470,507
8,1,1,0,0,459,512
9,1,1,0,0,454,508
10,1,1,0,0,448,506
11,1,1,0,0,432,504
12,1,1,0,0,415,508
13,1,1,0,0,397,510
14,1,1,0,0,384,509
15,1,1,0,0,363,507
0,1,1,0,0,343,505
1,1,1,0,0,325,508
2,1,1,0,0,315,508
3,1,1,0,0,304,506
4,1,1,0,0,293,507
5,1,1,0,0,285,506
6,1,1,0,0,281,506
7,1,1,0,0,281,510
8,1,1,0,0,278,507
9,1,1,0,0,281,511
10,1,1,0,0,287,505
11,1,1,0,0,297,505
12,1,1,0,0,310,511
13,1,1,0,0,320,508
14,1,1,0,0,340,506
15,1,1,0,0,355,505
0,1,1,0,0,370,508
1,1,1,0,0,384,510
2,1,1,0,0,391,505
3,1,1,0,0,398,506
4,1,1,0,0,408,505
5,1,1,0,0,417,509
6,1,1,0,0,436,509
7,1,1,0,0,452,507
8,1,1,0,0,467,506
9,1,1,0,0,480,508
10,1,1,0,0,491,511
11,1,1,0,0,502,507
12,1,1,0,0,514,511
13,1,1,0,0,525,507
14,1,1,0,0,532,507
15,1,1,0,0,538,510
0,1,1,0,0,548,512
1,1,1,0,0,558,508
2,1,1,0,0,567,508
3,1,1,0,0,576,508
4,1,1,0,0,578,511
5,1,1,0,0,580,509
6,1,1,0,0,585,512
7,1,1,0,0,585,508
8,1,1,0,0,587,508
9,1,1,0,0,587,511
10,1,1,0,0,589,511
11,1,1,0,0,588,509
12,1,1,0,0,583,507
13,1,1,0,0,579,507
14,1,1,0,0,576,509
15,1,1,0,0,578,511
0,1,1,0,0,575,507
1,1,1,0,0,578,508
2,1,1,0,0,580,507
3,1,1,0,0,580,509
4,1,1,0,0,583,510
5,1,1,0,0,583,509
6,1,1,0,0,584,509
7,1,1,0,0,588,508
8,1,1,0,0,591,507
9,1,1,0,0,589,513
10,1,1,0,0,589,509
11,1,1,0,0,591,507
12,1,1,0,0,590,507
13,1,1,0,0,584,510
14,1,1,0,0,576,511
15,1,1,0,0,577,510
0,1,1,0,0,577,508
1,1,1,0,0,574,507
2,1,1,0,0,572,508
3,1,1,0,0,573,511
4,1,1,0,0,574,510
5,1,1,0,0,575,508
6,1,1,0,0,576,508
7,1,1,0,0,580,510
8,1,1,0,0,583,510
9,1,1,0,0,584,511
10,1,1,0,0,585,508
11,1,1,0,0,583,505
12,1,1,0,0,588,510
13,1,1,0,0,591,512
14,1,1,0,0,586,507
15,1,1,0,0,583,507
0,1,1,0,0,580,507
1,1,1,0,0,575,510
2,1,1,0,0,576,510
3,1,1,0,0,576,507
4,1,1,0,0,577,508
5,1,1,0,0,577,508
6,1,1,0,0,573,513
7,1,1,0,0,572,509
8,1,1,0,0,574,513
9,1,1,0,0,576,507
10,1,1,0,0,579,508
11,1,1,0,0,577,511
12,1,1,0,0,582,512
13,1,1,0,0,586,510
14,1,1,0,0,581,507
15,1,1,0,0,582,507
0,1,1,0,0,582,509
1,1,1,0,0,583,511
2,1,1,0,0,583,507
3,1,1,0,0,584,508
4,1,1,0,0,588,507
5,1,1,0,0,585,510
6,1,1,0,0,579,509
7,1,1,0,0,577,512
8,1,1,0,0,574,508
9,1,1,0,0,575,509
10,1,1,0,0,573,512
11,1,1,0,0,572,509
12,1,1,0,0,569,511
13,1,1,0,0,572,508
14,1,1,0,0,572,508
15,1,1,0,0,570,510
0,1,1,0,0,569,512
1,1,1,0,0,570,510
2,1,1,0,0,574,509
3,1,1,0,0,583,507
4,1,1,0,0,583,508
5,1,1,0,0,583,512
6,1,1,0,0,580,511
7,1,1,0,0,580,509
8,1,1,0,0,579,508
9,1,1,0,0,580,511
10,1,1,0,0,576,509
11,1,1,0,0,569,513
12,1,1,0,0,572,509
13,1,1,0,0,569,508
14,1,1,0,0,569,511
15,1,1,0,0,568,512
0,1,1,0,0,567,511
1,1,1,0,0,568,509
2,1,1,0,0,568,510
3,1,1,0,0,569,512
4,1,1,0,0,570,511
5,1,1,0,0,574,508
6,1,1,0,0,576,511
7,1,1,0,0,576,509
8,1,1,0,0,581,512
9,1,1,0,0,583,514
10,1,1,0,0,583,512
11,1,1,0,0,583,508
12,1,1,0,0,573,508
13,1,1,0,0,570,511
14,1,1,0,0,566,511
15,1,1,0,0,565,510
0,1,1,0,0,564,509
1,1,1,0,0,561,508
2,1,1,0,0,557,511
3,1,1,0,0,556,511
4,1,1,0,0,560,510
5,1,1,0,0,558,510
6,1,1,0,0,558,508
7,1,1,0,0,563,511
8,1,1,0,0,568,509
9,1,1,0,0,566,506
10,1,1,0,0,569,507
11,1,1,0,0,574,507
12,1,1,0,0,575,509
13,1,1,0,0,575,509
14,1,1,0,0,571,510
15,1,1,0,0,569,508
0,1,1,0,0,572,507
1,1,1,0,0,572,510
2,1,1,0,0,572,508
3,1,1,0,0,570,512
4,1,1,0,0,569,508
5,1,1,0,0,567,508
6,1,1,0,0,568,508
7,1,1,0,0,568,511
8,1,1,0,0,566,511
9,1,1,0,0,572,508
10,1,1,0,0,578,507
11,1,1,0,0,575,510
12,1,1,0,0,575,512
13,1,1,0,0,579,511
14,1,1,0,0,583,508
15,1,1,0,0,581,508
0,1,1,0,0,580,510
1,1,1,0,0,579,510
2,1,1,0,0,582,507
3,1,1,0,0,579,508
4,1,1,0,0,576,508
5,1,1,0,0,576,508
6,1,1,0,0,574,512
7,1,1,0,0,575,509
8,1,1,0,0,565,513
9,1,1,0,0,565,507
10,1,1,0,0,568,510
11,1,1,0,0,562,509
12,1,1,0,0,559,507
13,1,1,0,0,560,508
14,1,1,0,0,561,507
15,1,1,0,0,559,509
0,1,1,0,0,562,510
1,1,1,0,0,566,507
2,1,1,0,0,572,508
3,1,1,0,0,572,508
4,1,1,0,0,572,510
5,1,1,0,0,578,510
6,1,1,0,0,576,506
7,1,1,0,0,573,508
8,1,1,0,0,571,505
9,1,1,0,0,565,510
10,1,1,0,0,567,508
11,1,1,0,0,564,504
12,1,1,0,0,563,506
13,1,1,0,0,559,505
14,1,1,0,0,551,508
15,1,1,0,0,549,508
0,1,1,0,0,547,505
1,1,1,0,0,545,507
2,1,1,0,0,549,506
3,1,1,0,0,550,508
4,1,1,0,0,555,509
5,1,1,0,0,555,506
6,1,1,0,0,554,507
7,1,1,0,0,554,505
8,1,1,0,0,554,509
9,1,1,0,0,552,507
10,1,1,0,0,552,505
11,1,1,0,0,550,506
12,1,1,0,0,548,505
13,1,1,0,0,540,507
14,1,1,0,0,534,508
15,1,1,0,0,528,505
0,1,1,0,0,525,507
1,1,1,0,0,527,505
2,1,1,0,0,527,508
3,1,1,0,0,526,508
4,1,1,0,0,520,505
5,1,1,0,0,520,507
6,1,1,0,0,519,505
7,1,1,0,0,520,509
8,1,1,0,0,515,508
9,1,1,0,0,514,504
10,1,1,0,0,516,504
11,1,1,0,0,511,503
12,1,1,0,0,513,504
13,1,1,0,0,515,508
14,1,1,0,0,516,507
15,1,1,0,0,509,507
0,1,1,0,0,508,506
1,1,1,0,0,507,506
2,1,1,0,0,504,509
3,1,1,0,0,502,508
4,1,1,0,0,501,507
5,1,1,0,0,498,507
6,1,1,0,0,499,507
7,1,1,0,0,495,511
8,1,1,0,0,497,506
9,1,1,0,0,496,508
10,1,1,0,0,495,508
11,1,1,0,0,493,508
12,1,1,0,0,495,511
13,1,1,0,0,493,508
14,1,1,0,0,492,508
15,1,1,0,0,494,508
0,1,1,0,0,495,511
1,1,1,0,0,495,510
2,1,1,0,0,495,514
3,1,1,0,0,493,509
4,1,1,0,0,492,509
5,1,1,0,0,494,509
6,1,1,0,0,492,513
7,1,1,0,0,492,512
8,1,1,0,0,493,515
9,1,1,0,0,494,508
10,1,1,0,0,496,511
11,1,1,0,0,499,514
12,1,1,0,0,503,512
13,1,1,0,0,510,509
14,1,1,0,0,519,509
15,1,1,0,0,522,512
0,1,1,0,0,524,512
1,1,1,0,0,529,512
2,1,1,0,0,528,510
3,1,1,0,0,524,510
4,1,1,0,0,519,513
5,1,1,0,0,518,512
6,1,1,0,0,512,512
7,1,1,0,0,510,512
8,1,1,0,0,505,510
9,1,1,0,0,498,511
10,1,1,0,0,492,515
11,1,1,0,0,487,512
12,1,1,0,0,480,510
13,1,1,0,0,478,510
14,1,1,0,0,478,512
15,1,1,0,0,479,514
0,1,1,0,0,476,513
1,1,1,0,0,478,510
2,1,1,0,0,483,510
3,1,1,0,0,487,511
4,1,1,0,0,487,515
5,1,1,0,0,491,513
6,1,1,0,0,496,515
7,1,1,0,0,500,510
8,1,1,0,0,502,510
9,1,1,0,0,507,516
10,1,1,0,0,511,513
11,1,1,0,0,510,511
12,1,1,0,0,507,511
13,1,1,0,0,507,513
14,1,1,0,0,505,515
15,1,1,0,0,499,511
0,1,1,0,0,496,511
1,1,1,0,0,491,511
2,1,1,0,0,492,514
3,1,1,0,0,490,514
4,1,1,0,0,486,511
5,1,1,0,0,484,512
6,1,1,0,0,485,513
7,1,1,0,0,487,517
8,1,1,0,0,491,513
9,1,1,0,0,493,516
10,1,1,0,0,492,512
11,1,1,0,0,492,512
12,1,1,0,0,493,514
13,1,1,0,0,492,516
14,1,1,0,0,494,515
15,1,1,0,0,493,512
0,1,1,0,0,491,512
1,1,1,0,0,493,515
2,1,1,0,0,492,514
3,1,1,0,0,488,517
4,1,1,0,0,479,513
5,1,1,0,0,480,513
6,1,1,0,0,479,513
7,1,1,0,0,471,516
8,1,1,0,0,464,516
9,1,1,0,0,467,513
10,1,1,0,0,470,511
11,1,1,0,0,470,515
12,1,1,0,0,472,515
13,1,1,0,0,477,514
14,1,1,0,0,480,512
15,1,1,0,0,480,511
0,1,1,0,0,482,514
1,1,1,0,0,484,514
2,1,1,0,0,484,511
3,1,1,0,0,481,513
4,1,1,0,0,485,512
5,1,1,0,0,483,513
6,1,1,0,0,477,517
7,1,1,0,0,477,514
8,1,1,0,0,474,517
9,1,1,0,0,464,511
10,1,1,0,0,461,515
11,1,1,0,0,457,517
12,1,1,0,0,452,515
13,1,1,0,0,453,512
14,1,1,0,0,455,512
15,1,1,0,0,448,515
0,1,1,0,0,450,515
1,1,1,0,0,454,515
2,1,1,0,0,460,513
3,1,1,0,0,461,513
4,1,1,0,0,462,515
5,1,1,0,0,464,515
6,1,1,0,0,460,514
7,1,1,0,0,462,515
8,1,1,0,0,464,513
9,1,1,0,0,460,513
10,1,1,0,0,461,519
11,1,1,0,0,463,512
12,1,1,0,0,461,514
13,1,1,0,0,459,513
14,1,1,0,0,457,515
15,1,1,0,0,459,517
0,1,1,0,0,459,516
1,1,1,0,0,457,513
2,1,1,0,0,456,513
3,1,1,0,0,460,515
4,1,1,0,0,463,515
5,1,1,0,0,460,519
6,1,1,0,0,461,514
7,1,1,0,0,467,513
8,1,1,0,0,468,516
9,1,1,0,0,469,518
10,1,1,0,0,468,515
11,1,1,0,0,473,518
12,1,1,0,0,471,514
13,1,1,0,0,468,516
14,1,1,0,0,465,518
15,1,1,0,0,462,517
0,1,1,0,0,465,513
1,1,1,0,0,464,513
2,1,1,0,0,463,514
3,1,1,0,0,457,518
4,1,1,0,0,462,517
5,1,1,0,0,464,514
6,1,1,0,0,467,514
7,1,1,0,0,471,516
8,1,1,0,0,476,516
9,1,1,0,0,481,517
10,1,1,0,0,485,515
11,1,1,0,0,487,511
12,1,1,0,0,492,515
13,1,1,0,0,499,517
14,1,1,0,0,500,512
15,1,1,0,0,500,513
0,1,1,0,0,500,513
1,1,1,0,0,500,515
2,1,1,0,0,498,515
3,1,1,0,0,496,512
4,1,1,0,0,493,513
5,1,1,0,0,494,513
6,1,1,0,0,492,517
7,1,1,0,0,492,515
8,1,1,0,0,494,511
9,1,1,0,0,493,511
10,1,1,0,0,495,510
11,1,1,0,0,498,514
12,1,1,0,0,500,512
13,1,1,0,0,504,510
14,1,1,0,0,507,510
15,1,1,0,0,507,510
0,1,1,0,0,506,512
1,1,1,0,0,507,513
2,1,1,0,0,507,510
3,1,1,0,0,508,510
4,1,1,0,0,507,510
5,1,1,0,0,504,513
6,1,1,0,0,502,513
7,1,1,0,0,497,509
8,1,1,0,0,495,509
9,1,1,0,0,493,508
10,1,1,0,0,492,512
11,1,1,0,0,491,511
12,1,1,0,0,490,508
13,1,1,0,0,490,508
14,1,1,0,0,490,508
15,1,1,0,0,492,511
0,1,1,0,0,495,510
1,1,1,0,0,499,513
2,1,1,0,0,500,509
3,1,1,0,0,503,510
4,1,1,0,0,505,513
5,1,1,0,0,508,511
6,1,1,0,0,509,513
7,1,1,0,0,510,510
8,1,1,0,0,512,510
9,1,1,0,0,514,514
10,1,1,0,0,513,510
11,1,1,0,0,510,514
12,1,1,0,0,508,510
13,1,1,0,0,509,511
14,1,1,0,0,508,513
15,1,1,0,0,504,511
0,1,1,0,0,503,513
1,1,1,0,0,502,510
2,1,1,0,0,502,510
3,1,1,0,0,502,512
4,1,1,0,0,501,511
5,1,1,0,0,501,515
6,1,1,0,0,501,510
7,1,1,0,0,501,510
8,1,1,0,0,501,510
9,1,1,0,0,502,513
10,1,1,0,0,501,510
11,1,1,0,0,502,510
12,1,1,0,0,503,510
13,1,1,0,0,504,512
14,1,1,0,0,502,514
15,1,1,0,0,499,512
0,1,1,0,0,496,510
1,1,1,0,0,495,509
2,1,1,0,0,493,510
3,1,1,0,0,495,514
4,1,1,0,0,494,513
5,1,1,0,0,492,510
6,1,1,0,0,491,510
7,1,1,0,0,489,514
8,1,1,0,0,488,510
9,1,1,0,0,485,513
10,1,1,0,0,484,509
11,1,1,0,0,485,509
12,1,1,0,0,483,512
13,1,1,0,0,483,513
14,1,1,0,0,483,512
15,1,1,0,0,484,509
0,1,1,0,0,483,508
1,1,1,0,0,478,511
2,1,1,0,0,475,510
3,1,1,0,0,473,513
4,1,1,0,0,471,509
5,1,1,0,0,469,509
6,1,1,0,0,467,509
7,1,1,0,0,467,512
8,1,1,0,0,467,511
9,1,1,0,0,471,508
10,1,1,0,0,475,506
11,1,1,0,0,478,510
12,1,1,0,0,479,511
13,1,1,0,0,481,510
14,1,1,0,0,486,508
15,1,1,0,0,492,507
0,1,1,0,0,498,510
1,1,1,0,0,502,509
2,1,1,0,0,504,507
3,1,1,0,0,508,508
4,1,1,0,0,511,507
5,1,1,0,0,514,508
6,1,1,0,0,517,512
7,1,1,0,0,519,509
8,1,1,0,0,521,513
9,1,1,0,0,521,505
10,1,1,0,0,523,509
11,1,1,0,0,524,511
12,1,1,0,0,524,509
13,1,1,0,0,525,506
14,1,1,0,0,524,506
15,1,1,0,0,524,508
0,1,1,0,0,524,509
1,1,1,0,0,524,509
2,1,1,0,0,520,507
3,1,1,0,0,517,506
4,1,1,0,0,512,509
5,1,1,0,0,503,509
6,1,1,0,0,495,508
7,1,1,0,0,483,509
8,1,1,0,0,472,507
9,1,1,0,0,461,506
10,1,1,0,0,449,512
11,1,1,0,0,437,505
12,1,1,0,0,429,507
13,1,1,0,0,420,506
14,1,1,0,0,412,509
15,1,1,0,0,402,511
0,1,1,0,0,392,508
1,1,1,0,0,383,506
2,1,1,0,0,370,506
3,1,1,0,0,358,508
4,1,1,0,0,345,508
5,1,1,0,0,335,512
6,1,1,0,0,328,506
7,1,1,0,0,323,507
8,1,1,0,0,318,507
9,1,1,0,0,312,512
10,1,1,0,0,306,508
11,1,1,0,0,304,505
12,1,1,0,0,302,505
13,1,1,0,0,300,508
14,1,1,0,0,305,510
15,1,1,0,0,308,508
0,1,1,0,0,313,505
1,1,1,0,0,320,504
2,1,1,0,0,329,505
3,1,1,0,0,341,509
4,1,1,0,0,352,508
5,1,1,0,0,364,505
6,1,1,0,0,378,506
7,1,1,0,0,391,508
8,1,1,0,0,403,508
9,1,1,0,0,415,505
10,1,1,0,0,428,505
11,1,1,0,0,441,504
12,1,1,0,0,454,507
13,1,1,0,0,467,507
14,1,1,0,0,479,504
15,1,1,0,0,492,505
0,1,1,0,0,501,505
1,1,1,0,0,510,508
2,1,1,0,0,517,507
3,1,1,0,0,524,507
4,1,1,0,0,532,505
5,1,1,0,0,537,505
6,1,1,0,0,544,508
7,1,1,0,0,547,507
8,1,1,0,0,553,503
9,1,1,0,0,556,504
10,1,1,0,0,559,503
11,1,1,0,0,561,507
12,1,1,0,0,561,505
13,1,1,0,0,564,503
14,1,1,0,0,566,504
15,1,1,0,0,567,504
0,1,1,0,0,567,507
1,1,1,0,0,568,507
2,1,1,0,0,568,504
3,1,1,0,0,568,505
4,1,1,0,0,565,504
5,1,1,0,0,564,507
6,1,1,0,0,564,507
7,1,1,0,0,564,503
8,1,1,0,0,565,504
9,1,1,0,0,566,503
10,1,1,0,0,568,508
11,1,1,0,0,569,505
12,1,1,0,0,572,503
13,1,1,0,0,576,504
14,1,1,0,0,579,504
15,1,1,0,0,583,506
0,1,1,0,0,584,507
1,1,1,0,0,586,504
2,1,1,0,0,587,505
3,1,1,0,0,589,504
4,1,1,0,0,590,507
5,1,1,0,0,591,508
6,1,1,0,0,590,504
7,1,1,0,0,589,504
8,1,1,0,0,588,503
9,1,1,0,0,587,508
10,1,1,0,0,585,505
11,1,1,0,0,582,508
12,1,1,0,0,580,505
13,1,1,0,0,580,505
14,1,1,0,0,579,508
15,1,1,0,0,578,507
0,1,1,0,0,575,510
1,1,1,0,0,573,506
2,1,1,0,0,572,507
3,1,1,0,0,571,510
4,1,1,0,0,571,508
5,1,1,0,0,572,511
6,1,1,0,0,573,508
7,1,1,0,0,573,508
8,1,1,0,0,573,513
9,1,1,0,0,574,509
10,1,1,0,0,573,512
11,1,1,0,0,571,507
12,1,1,0,0,570,508
13,1,1,0,0,568,510
14,1,1,0,0,567,512
15,1,1,0,0,565,510
0,1,1,0,0,564,507
1,1,1,0,0,562,507
2,1,1,0,0,560,510
3,1,1,0,0,558,510
4,1,1,0,0,557,509
5,1,1,0,0,556,509
6,1,1,0,0,555,508
7,1,1,0,0,555,511
8,1,1,0,0,556,510
9,1,1,0,0,557,513
10,1,1,0,0,557,508
11,1,1,0,0,557,508
12,1,1,0,0,556,511
13,1,1,0,0,556,513
14,1,1,0,0,554,512
15,1,1,0,0,553,509
0,1,1,0,0,552,509
1,1,1,0,0,550,511
2,1,1,0,0,549,511
3,1,1,0,0,546,514
4,1,1,0,0,544,510
5,1,1,0,0,542,510
6,1,1,0,0,542,511
7,1,1,0,0,543,513
8,1,1,0,0,543,513
9,1,1,0,0,545,511
10,1,1,0,0,545,509
11,1,1,0,0,547,513
12,1,1,0,0,547,513
13,1,1,0,0,550,512
14,1,1,0,0,553,510
15,1,1,0,0,556,509
0,1,1,0,0,558,512
1,1,1,0,0,556,512
2,1,1,0,0,558,510
3,1,1,0,0,557,510
4,1,1,0,0,556,510
5,1,1,0,0,556,510
6,1,1,0,0,557,515
7,1,1,0,0,558,511
8,1,1,0,0,558,515
9,1,1,0,0,557,510
10,1,1,0,0,556,512
11,1,1,0,0,557,514
12,1,1,0,0,558,513
13,1,1,0,0,561,511
14,1,1,0,0,562,510
15,1,1,0,0,560,513
0,1,1,0,0,560,513
1,1,1,0,0,560,513
2,1,1,0,0,559,510
3,1,1,0,0,558,510
4,1,1,0,0,558,513
5,1,1,0,0,556,513
6,1,1,0,0,553,510
7,1,1,0,0,552,511
8,1,1,0,0,551,509
9,1,1,0,0,548,510
10,1,1,0,0,547,514
11,1,1,0,0,548,511
12,1,1,0,0,548,515
13,1,1,0,0,550,510
14,1,1,0,0,551,510
15,1,1,0,0,554,512
0,1,1,0,0,558,515
1,1,1,0,0,561,510
2,1,1,0,0,566,511
3,1,1,0,0,572,514
4,1,1,0,0,576,512
5,1,1,0,0,578,512
6,1,1,0,0,577,516
7,1,1,0,0,576,509
8,1,1,0,0,576,511
9,1,1,0,0,574,515
10,1,1,0,0,571,512
11,1,1,0,0,568,510
12,1,1,0,0,565,510
13,1,1,0,0,561,513
14,1,1,0,0,556,515
15,1,1,0,0,551,510
0,1,1,0,0,548,510
1,1,1,0,0,547,510
2,1,1,0,0,547,511
3,1,1,0,0,547,515
4,1,1,0,0,546,511
5,1,1,0,0,548,511
6,1,1,0,0,550,512
7,1,1,0,0,553,514
8,1,1,0,0,557,513
9,1,1,0,0,558,515
10,1,1,0,0,560,510
11,1,1,0,0,561,511
12,1,1,0,0,562,513
13,1,1,0,0,561,516
14,1,1,0,0,561,514
15,1,1,0,0,561,511
0,1,1,0,0,562,511
1,1,1,0,0,563,513
2,1,1,0,0,563,512
3,1,1,0,0,564,516
4,1,1,0,0,565,511
5,1,1,0,0,564,511
6,1,1,0,0,566,511
7,1,1,0,0,564,515
8,1,1,0,0,562,512
9,1,1,0,0,561,511
10,1,1,0,0,560,508
11,1,1,0,0,558,512
12,1,1,0,0,556,513
13,1,1,0,0,554,512
14,1,1,0,0,552,510
15,1,1,0,0,551,509
0,1,1,0,0,550,512
1,1,1,0,0,549,512
2,1,1,0,0,547,509
3,1,1,0,0,545,510
4,1,1,0,0,542,509
5,1,1,0,0,540,510
6,1,1,0,0,540,514
7,1,1,0,0,538,511
8,1,1,0,0,537,514
9,1,1,0,0,539,508
10,1,1,0,0,541,508
11,1,1,0,0,544,513
12,1,1,0,0,547,511
13,1,1,0,0,549,508
14,1,1,0,0,551,508
15,1,1,0,0,551,511
0,1,1,0,0,551,513
1,1,1,0,0,552,508
2,1,1,0,0,550,508
3,1,1,0,0,550,508
4,1,1,0,0,547,511
5,1,1,0,0,543,511
6,1,1,0,0,540,508
7,1,1,0,0,536,508
8,1,1,0,0,531,509
9,1,1,0,0,525,512
10,1,1,0,0,521,511
11,1,1,0,0,516,507
12,1,1,0,0,512,507
13,1,1,0,0,509,507
14,1,1,0,0,504,510
15,1,1,0,0,498,510
0,1,1,0,0,491,507
1,1,1,0,0,485,508
2,1,1,0,0,480,508
3,1,1,0,0,475,512
4,1,1,0,0,469,510
5,1,1,0,0,464,513
6,1,1,0,0,459,508
7,1,1,0,0,456,509
8,1,1,0,0,455,513
9,1,1,0,0,453,509
10,1,1,0,0,452,512
11,1,1,0,0,450,507
12,1,1,0,0,449,509
13,1,1,0,0,448,510
14,1,1,0,0,446,510
15,1,1,0,0,444,511
0,1,1,0,0,443,508
1,1,1,0,0,441,508
2,1,1,0,0,440,511
3,1,1,0,0,439,510
4,1,1,0,0,439,513
5,1,1,0,0,440,509
6,1,1,0,0,441,509
7,1,1,0,0,443,511
8,1,1,0,0,445,513
9,1,1,0,0,448,511
10,1,1,0,0,450,512
11,1,1,0,0,451,508
12,1,1,0,0,452,511
13,1,1,0,0,454,513
14,1,1,0,0,455,512
15,1,1,0,0,455,508
0,1,1,0,0,456,509
1,1,1,0,0,455,511
2,1,1,0,0,454,512
3,1,1,0,0,454,511
4,1,1,0,0,456,511
5,1,1,0,0,454,510
6,1,1,0,0,454,511
7,1,1,0,0,455,514
8,1,1,0,0,456,509
9,1,1,0,0,457,511
10,1,1,0,0,463,510
11,1,1,0,0,470,512
12,1,1,0,0,478,515
13,1,1,0,0,484,513
14,1,1,0,0,489,510
15,1,1,0,0,494,510
0,1,1,0,0,496,513
1,1,1,0,0,499,515
2,1,1,0,0,502,510
3,1,1,0,0,503,510
4,1,1,0,0,502,510
5,1,1,0,0,502,513
6,1,1,0,0,500,512
7,1,1,0,0,499,516
8,1,1,0,0,497,511
9,1,1,0,0,496,511
10,1,1,0,0,497,515
11,1,1,0,0,496,512
12,1,1,0,0,493,513
13,1,1,0,0,493,510
14,1,1,0,0,492,511
15,1,1,0,0,492,513
0,1,1,0,0,489,515
1,1,1,0,0,486,510
2,1,1,0,0,481,511
3,1,1,0,0,477,512
4,1,1,0,0,473,515
5,1,1,0,0,472,513
6,1,1,0,0,474,516
7,1,1,0,0,476,511
8,1,1,0,0,476,513
9,1,1,0,0,480,514
10,1,1,0,0,481,516
11,1,1,0,0,483,515
12,1,1,0,0,484,512
13,1,1,0,0,482,512
14,1,1,0,0,482,515
15,1,1,0,0,481,515
0,1,1,0,0,481,515
1,1,1,0,0,481,512
2,1,1,0,0,481,512
3,1,1,0,0,481,515
4,1,1,0,0,481,516
5,1,1,0,0,482,515
6,1,1,0,0,484,515
7,1,1,0,0,486,514
8,1,1,0,0,487,514
9,1,1,0,0,487,519
10,1,1,0,0,487,516
11,1,1,0,0,487,514
12,1,1,0,0,488,513
13,1,1,0,0,489,516
14,1,1,0,0,489,518
15,1,1,0,0,489,517
0,1,1,0,0,490,514
1,1,1,0,0,489,514
2,1,1,0,0,488,514
3,1,1,0,0,488,519
4,1,1,0,0,489,518
5,1,1,0,0,491,515
6,1,1,0,0,490,515
7,1,1,0,0,492,517
8,1,1,0,0,494,517
9,1,1,0,0,495,518
10,1,1,0,0,496,515
11,1,1,0,0,498,513
12,1,1,0,0,499,516
13,1,1,0,0,502,519
14,1,1,0,0,503,514
15,1,1,0,0,504,514
0,1,1,0,0,503,514
1,1,1,0,0,504,516
2,1,1,0,0,504,516
3,1,1,0,0,503,514
4,1,1,0,0,503,513
5,1,1,0,0,502,515
6,1,1,0,0,502,519
7,1,1,0,0,503,515
8,1,1,0,0,502,518
9,1,1,0,0,505,514
10,1,1,0,0,507,513
11,1,1,0,0,508,516
12,1,1,0,0,510,514
13,1,1,0,0,511,517
14,1,1,0,0,513,513
15,1,1,0,0,515,513
0,1,1,0,0,518,516
1,1,1,0,0,517,517
2,1,1,0,0,516,515
3,1,1,0,0,517,514
4,1,1,0,0,516,513
5,1,1,0,0,514,516
6,1,1,0,0,513,515
7,1,1,0,0,512,516
8,1,1,0,0,512,514
9,1,1,0,0,512,514
10,1,1,0,0,511,517
11,1,1,0,0,510,514
12,1,1,0,0,511,513
13,1,1,0,0,512,512
14,1,1,0,0,514,512
15,1,1,0,0,517,515
0,1,1,0,0,520,517
1,1,1,0,0,522,515
2,1,1,0,0,523,512
3,1,1,0,0,524,512
4,1,1,0,0,527,512
5,1,1,0,0,528,516
6,1,1,0,0,529,512
7,1,1,0,0,529,512
8,1,1,0,0,529,511
9,1,1,0,0,528,515
10,1,1,0,0,526,512
11,1,1,0,0,524,510
12,1,1,0,0,522,510
13,1,1,0,0,520,510
14,1,1,0,0,519,513
15,1,1,0,0,517,512
0,1,1,0,0,515,510
1,1,1,0,0,514,510
2,1,1,0,0,513,510
3,1,1,0,0,513,512
4,1,1,0,0,513,512
5,1,1,0,0,513,509
6,1,1,0,0,513,509
7,1,1,0,0,513,508
8,1,1,0,0,513,512
9,1,1,0,0,511,509
10,1,1,0,0,510,512
11,1,1,0,0,510,507
12,1,1,0,0,508,507
13,1,1,0,0,508,510
14,1,1,0,0,506,510
15,1,1,0,0,503,507
0,1,1,0,0,502,508
1,1,1,0,0,502,507
2,1,1,0,0,501,510
3,1,1,0,0,499,510
4,1,1,0,0,499,507
5,1,1,0,0,499,507
6,1,1,0,0,499,506
7,1,1,0,0,499,510
8,1,1,0,0,500,508
9,1,1,0,0,500,505
10,1,1,0,0,502,505
11,1,1,0,0,504,504
12,1,1,0,0,505,507
13,1,1,0,0,505,507
14,1,1,0,0,504,504
15,1,1,0,0,503,504
0,1,1,0,0,502,504
1,1,1,0,0,500,507
2,1,1,0,0,496,508
3,1,1,0,0,493,505
4,1,1,0,0,489,504
5,1,1,0,0,485,504
6,1,1,0,0,482,509
7,1,1,0,0,479,506
8,1,1,0,0,476,509
9,1,1,0,0,475,504
10,1,1,0,0,473,505
11,1,1,0,0,472,510
12,1,1,0,0,471,506
13,1,1,0,0,471,509
14,1,1,0,0,470,505
15,1,1,0,0,472,505
0,1,1,0,0,473,509
1,1,1,0,0,475,508
2,1,1,0,0,476,510
3,1,1,0,0,475,507
4,1,1,0,0,474,507
5,1,1,0,0,473,510
6,1,1,0,0,472,509
7,1,1,0,0,470,512
8,1,1,0,0,469,507
9,1,1,0,0,467,508
10,1,1,0,0,466,511
11,1,1,0,0,464,510
12,1,1,0,0,465,512
13,1,1,0,0,466,508
14,1,1,0,0,468,509
15,1,1,0,0,472,511
0,1,1,0,0,475,511
1,1,1,0,0,480,508
2,1,1,0,0,484,509
3,1,1,0,0,487,509
4,1,1,0,0,490,512
5,1,1,0,0,492,514
6,1,1,0,0,495,511
7,1,1,0,0,497,511
8,1,1,0,0,499,511
9,1,1,0,0,499,511
10,1,1,0,0,498,514
11,1,1,0,0,497,508
12,1,1,0,0,497,511
13,1,1,0,0,495,509
14,1,1,0,0,493,511
15,1,1,0,0,492,513
0,1,1,0,0,491,511
1,1,1,0,0,490,508
2,1,1,0,0,487,508
3,1,1,0,0,487,510
4,1,1,0,0,484,510
5,1,1,0,0,481,514
6,1,1,0,0,479,508
7,1,1,0,0,477,509
8,1,1,0,0,477,508
9,1,1,0,0,477,512
10,1,1,0,0,477,509
11,1,1,0,0,477,511
12,1,1,0,0,476,508
13,1,1,0,0,478,511
14,1,1,0,0,477,513
15,1,1,0,0,474,511
0,1,1,0,0,472,508
1,1,1,0,0,470,508
2,1,1,0,0,469,509
3,1,1,0,0,467,513
4,1,1,0,0,465,512
5,1,1,0,0,466,508
6,1,1,0,0,467,509
7,1,1,0,0,470,511
8,1,1,0,0,472,510
9,1,1,0,0,476,511
10,1,1,0,0,481,509
11,1,1,0,0,488,507
12,1,1,0,0,496,510
13,1,1,0,0,505,512
14,1,1,0,0,513,507
15,1,1,0,0,521,508
0,1,1,0,0,526,508
1,1,1,0,0,531,510
2,1,1,0,0,534,510
3,1,1,0,0,537,508
4,1,1,0,0,536,508
5,1,1,0,0,534,509
6,1,1,0,0,531,512
7,1,1,0,0,527,510
8,1,1,0,0,525,506
9,1,1,0,0,522,507
10,1,1,0,0,521,507
11,1,1,0,0,520,510
12,1,1,0,0,519,508
13,1,1,0,0,518,505
14,1,1,0,0,516,507
15,1,1,0,0,513,505
0,1,1,0,0,508,508
1,1,1,0,0,504,508
2,1,1,0,0,500,506
3,1,1,0,0,497,507
4,1,1,0,0,493,506
5,1,1,0,0,490,509
6,1,1,0,0,487,510
7,1,1,0,0,483,505
8,1,1,0,0,483,507
9,1,1,0,0,480,505
10,1,1,0,0,473,509
11,1,1,0,0,463,508
12,1,1,0,0,453,505
13,1,1,0,0,441,506
14,1,1,0,0,423,506
15,1,1,0,0,403,508
0,1,1,0,0,383,508
1,1,1,0,0,366,511
2,1,1,0,0,352,507
3,1,1,0,0,342,508
4,1,1,0,0,332,511
5,1,1,0,0,328,509
6,1,1,0,0,327,511
7,1,1,0,0,327,507
8,1,1,0,0,323,508
9,1,1,0,0,318,511
10,1,1,0,0,314,510
11,1,1,0,0,312,512
12,1,1,0,0,313,508
13,1,1,0,0,318,508
14,1,1,0,0,325,511
15,1,1,0,0,331,513
0,1,1,0,0,339,511
1,1,1,0,0,348,508
2,1,1,0,0,358,509
3,1,1,0,0,372,512
4,1,1,0,0,389,510
5,1,1,0,0,408,508
6,1,1,0,0,428,510
7,1,1,0,0,447,509
8,1,1,0,0,466,511
9,1,1,0,0,483,512
10,1,1,0,0,497,508
11,1,1,0,0,509,508
12,1,1,0,0,519,508
13,1,1,0,0,526,511
14,1,1,0,0,531,513
15,1,1,0,0,533,511
0,1,1,0,0,535,508
1,1,1,0,0,534,508
2,1,1,0,0,533,511
3,1,1,0,0,531,511
4,1,1,0,0,528,514
5,1,1,0,0,526,510
6,1,1,0,0,524,508
7,1,1,0,0,524,512
8,1,1,0,0,524,509
9,1,1,0,0,526,513
10,1,1,0,0,527,508
11,1,1,0,0,528,509
12,1,1,0,0,529,511
13,1,1,0,0,529,511
14,1,1,0,0,530,513
15,1,1,0,0,530,509
0,1,1,0,0,531,509
1,1,1,0,0,530,510
2,1,1,0,0,529,514
3,1,1,0,0,528,513
4,1,1,0,0,529,510
5,1,1,0,0,532,511
6,1,1,0,0,534,512
7,1,1,0,0,537,511
8,1,1,0,0,538,513
9,1,1,0,0,540,510
10,1,1,0,0,543,510
11,1,1,0,0,547,512
12,1,1,0,0,552,514
13,1,1,0,0,558,513
14,1,1,0,0,564,510
15,1,1,0,0,569,510
0,1,1,0,0,573,512
1,1,1,0,0,574,514
2,1,1,0,0,575,510
3,1,1,0,0,574,510
4,1,1,0,0,573,510
5,1,1,0,0,569,512
6,1,1,0,0,566,512
7,1,1,0,0,562,516
8,1,1,0,0,558,510
9,1,1,0,0,554,510
10,1,1,0,0,549,514
11,1,1,0,0,543,510
12,1,1,0,0,539,513
13,1,1,0,0,535,509
14,1,1,0,0,532,510
15,1,1,0,0,533,510
0,1,1,0,0,533,514
1,1,1,0,0,534,512
2,1,1,0,0,537,510
3,1,1,0,0,539,511
4,1,1,0,0,540,512
5,1,1,0,0,540,514
6,1,1,0,0,539,512
7,1,1,0,0,536,509
8,1,1,0,0,531,510
9,1,1,0,0,527,512
10,1,1,0,0,523,509
11,1,1,0,0,519,512
12,1,1,0,0,515,509
13,1,1,0,0,512,509
14,1,1,0,0,509,512
15,1,1,0,0,509,513
0,1,1,0,0,508,509
1,1,1,0,0,509,508
2,1,1,0,0,509,508
3,1,1,0,0,511,512
4,1,1,0,0,514,510
5,1,1,0,0,515,511
6,1,1,0,0,518,510
7,1,1,0,0,520,508
8,1,1,0,0,523,508
9,1,1,0,0,525,512
10,1,1,0,0,527,510
11,1,1,0,0,528,507
12,1,1,0,0,530,507
13,1,1,0,0,531,510
14,1,1,0,0,532,512
15,1,1,0,0,533,510
0,1,1,0,0,534,508
1,1,1,0,0,534,507
2,1,1,0,0,534,507
3,1,1,0,0,534,512
4,1,1,0,0,535,511
5,1,1,0,0,536,508
6,1,1,0,0,538,509
7,1,1,0,0,540,510
8,1,1,0,0,542,510
9,1,1,0,0,544,511
10,1,1,0,0,545,508
11,1,1,0,0,546,507
12,1,1,0,0,547,509
13,1,1,0,0,548,511
14,1,1,0,0,549,506
15,1,1,0,0,549,507
0,1,1,0,0,550,507
1,1,1,0,0,551,509
2,1,1,0,0,551,509
3,1,1,0,0,551,507
4,1,1,0,0,551,507
5,1,1,0,0,551,508
6,1,1,0,0,553,512
7,1,1,0,0,554,509
8,1,1,0,0,557,505
9,1,1,0,0,562,506
10,1,1,0,0,567,506
11,1,1,0,0,571,510
12,1,1,0,0,575,507
13,1,1,0,0,579,510
14,1,1,0,0,581,506
15,1,1,0,0,581,506
0,1,1,0,0,581,506
1,1,1,0,0,581,511
2,1,1,0,0,579,510
3,1,1,0,0,577,507
4,1,1,0,0,574,507
5,1,1,0,0,572,506
6,1,1,0,0,569,508
7,1,1,0,0,566,510
8,1,1,0,0,564,506
9,1,1,0,0,563,506
10,1,1,0,0,563,508
11,1,1,0,0,564,510
12,1,1,0,0,565,508
13,1,1,0,0,566,506
14,1,1,0,0,568,506
15,1,1,0,0,570,508
0,1,1,0,0,574,510
1,1,1,0,0,577,505
2,1,1,0,0,580,506
3,1,1,0,0,583,506
4,1,1,0,0,585,509
5,1,1,0,0,587,508
6,1,1,0,0,587,512
7,1,1,0,0,587,507
8,1,1,0,0,587,507
9,1,1,0,0,587,511
10,1,1,0,0,585,507
11,1,1,0,0,584,509
12,1,1,0,0,583,506
13,1,1,0,0,582,507
14,1,1,0,0,580,509
15,1,1,0,0,579,511
0,1,1,0,0,579,506
1,1,1,0,0,579,507
2,1,1,0,0,581,507
3,1,1,0,0,582,511
4,1,1,0,0,583,508
5,1,1,0,0,584,506
6,1,1,0,0,584,510
7,1,1,0,0,585,508
8,1,1,0,0,585,510
9,1,1,0,0,584,513
10,1,1,0,0,585,510
11,1,1,0,0,586,507
12,1,1,0,0,586,507
13,1,1,0,0,586,509
14,1,1,0,0,586,509
15,1,1,0,0,586,510
0,1,1,0,0,586,507
1,1,1,0,0,587,507
2,1,1,0,0,588,509
3,1,1,0,0,588,510
4,1,1,0,0,588,509
5,1,1,0,0,589,508
6,1,1,0,0,589,508
7,1,1,0,0,590,508
8,1,1,0,0,590,513
9,1,1,0,0,590,510
10,1,1,0,0,591,507
11,1,1,0,0,591,506
12,1,1,0,0,591,509
13,1,1,0,0,590,511
14,1,1,0,0,589,510
15,1,1,0,0,588,507
0,1,1,0,0,587,507
1,1,1,0,0,586,509
2,1,1,0,0,585,509
3,1,1,0,0,585,507
4,1,1,0,0,584,508
5,1,1,0,0,583,508
6,1,1,0,0,583,507
7,1,1,0,0,583,512
8,1,1,0,0,584,507
9,1,1,0,0,586,507
10,1,1,0,0,588,507
11,1,1,0,0,589,509
12,1,1,0,0,589,509
13,1,1,0,0,590,507
14,1,1,0,0,589,508
15,1,1,0,0,588,508
0,1,1,0,0,585,510
1,1,1,0,0,583,510
2,1,1,0,0,579,507
3,1,1,0,0,574,508
4,1,1,0,0,569,508
5,1,1,0,0,566,510
6,1,1,0,0,563,511
7,1,1,0,0,559,506
8,1,1,0,0,556,507
9,1,1,0,0,553,507
10,1,1,0,0,551,510
11,1,1,0,0,549,509
12,1,1,0,0,548,506
13,1,1,0,0,547,507
14,1,1,0,0,547,507
15,1,1,0,0,545,510
0,1,1,0,0,543,510
1,1,1,0,0,542,507
2,1,1,0,0,541,507
3,1,1,0,0,539,507
4,1,1,0,0,537,510
5,1,1,0,0,536,511
6,1,1,0,0,536,506
7,1,1,0,0,533,513
8,1,1,0,0,531,509
9,1,1,0,0,528,511
10,1,1,0,0,527,511
11,1,1,0,0,527,508
12,1,1,0,0,527,508
13,1,1,0,0,526,509
14,1,1,0,0,524,511
15,1,1,0,0,523,512
0,1,1,0,0,521,508
1,1,1,0,0,521,510
2,1,1,0,0,522,510
3,1,1,0,0,523,512
4,1,1,0,0,523,512
5,1,1,0,0,522,510
6,1,1,0,0,521,510
7,1,1,0,0,519,510
8,1,1,0,0,518,512
9,1,1,0,0,516,510
10,1,1,0,0,514,510
11,1,1,0,0,511,510
12,1,1,0,0,508,511
13,1,1,0,0,506,510
14,1,1,0,0,504,513
15,1,1,0,0,501,512
0,1,1,0,0,500,512
1,1,1,0,0,499,512
2,1,1,0,0,498,512
3,1,1,0,0,496,515
4,1,1,0,0,495,510
5,1,1,0,0,494,517
6,1,1,0,0,493,513
7,1,1,0,0,492,513
8,1,1,0,0,492,517
9,1,1,0,0,492,515
10,1,1,0,0,491,515
11,1,1,0,0,490,513
12,1,1,0,0,488,513
13,1,1,0,0,486,518
14,1,1,0,0,483,516
15,1,1,0,0,480,516
0,1,1,0,0,477,515
1,1,1,0,0,474,515
2,1,1,0,0,472,519
3,1,1,0,0,471,519
4,1,1,0,0,469,515
5,1,1,0,0,469,516
6,1,1,0,0,470,518
7,1,1,0,0,469,520
8,1,1,0,0,468,519
9,1,1,0,0,468,516
10,1,1,0,0,466,516
11,1,1,0,0,465,516
12,1,1,0,0,463,519
13,1,1,0,0,461,519
14,1,1,0,0,459,517
15,1,1,0,0,456,517
0,1,1,0,0,452,519
1,1,1,0,0,448,518
2,1,1,0,0,446,523
3,1,1,0,0,444,518
4,1,1,0,0,441,518
5,1,1,0,0,440,518
6,1,1,0,0,438,520
7,1,1,0,0,435,521
8,1,1,0,0,434,518
9,1,1,0,0,432,516
10,1,1,0,0,432,520
11,1,1,0,0,433,521
12,1,1,0,0,434,519
13,1,1,0,0,435,516
14,1,1,0,0,435,516
15,1,1,0,0,436,519
0,1,1,0,0,436,519
1,1,1,0,0,436,516
2,1,1,0,0,436,516
3,1,1,0,0,436,517
4,1,1,0,0,435,517
5,1,1,0,0,435,521
6,1,1,0,0,434,518
7,1,1,0,0,434,521
8,1,1,0,0,434,515
9,1,1,0,0,433,518
10,1,1,0,0,434,520
11,1,1,0,0,434,518
12,1,1,0,0,435,515
13,1,1,0,0,437,515
14,1,1,0,0,439,517
15,1,1,0,0,441,518
0,1,1,0,0,444,518
1,1,1,0,0,446,515
2,1,1,0,0,447,515
3,1,1,0,0,448,517
4,1,1,0,0,450,517
5,1,1,0,0,452,516
6,1,1,0,0,452,516
7,1,1,0,0,452,516
8,1,1,0,0,452,515
9,1,1,0,0,452,520
10,1,1,0,0,452,512
11,1,1,0,0,453,515
12,1,1,0,0,454,515
13,1,1,0,0,456,516
14,1,1,0,0,459,519
15,1,1,0,0,463,513
0,1,1,0,0,467,513
1,1,1,0,0,472,514
2,1,1,0,0,476,516
3,1,1,0,0,481,518
4,1,1,0,0,485,516
5,1,1,0,0,488,514
6,1,1,0,0,489,514
7,1,1,0,0,488,513
8,1,1,0,0,486,518
9,1,1,0,0,483,515
10,1,1,0,0,480,515
11,1,1,0,0,476,513
12,1,1,0,0,471,515
13,1,1,0,0,466,517
14,1,1,0,0,463,515
15,1,1,0,0,460,513
0,1,1,0,0,459,513
1,1,1,0,0,458,514
2,1,1,0,0,459,515
3,1,1,0,0,460,514
4,1,1,0,0,462,513
5,1,1,0,0,465,513
6,1,1,0,0,468,515
7,1,1,0,0,473,514
8,1,1,0,0,478,516
9,1,1,0,0,481,512
10,1,1,0,0,485,513
11,1,1,0,0,489,515
12,1,1,0,0,492,517
13,1,1,0,0,494,515
14,1,1,0,0,494,512
15,1,1,0,0,494,512
0,1,1,0,0,492,514
1,1,1,0,0,490,517
2,1,1,0,0,486,512
3,1,1,0,0,482,512
4,1,1,0,0,479,512
5,1,1,0,0,476,513
6,1,1,0,0,474,514
7,1,1,0,0,472,518
8,1,1,0,0,471,512
9,1,1,0,0,470,512
10,1,1,0,0,470,516
11,1,1,0,0,471,512
12,1,1,0,0,473,514
13,1,1,0,0,475,511
14,1,1,0,0,478,511
15,1,1,0,0,481,513
0,1,1,0,0,483,515
