0,1,2,3,4,5,6
0,1,1,0,0,580,508
1,1,1,0,0,577,509
2,1,1,0,0,575,510
3,1,1,0,0,573,509
4,1,1,0,0,571,508
5,1,1,0,0,570,510
6,1,1,0,0,570,511
7,1,1,0,0,569,512
8,1,1,0,0,569,510
9,1,1,0,0,568,514
10,1,1,0,0,568,511
11,1,1,0,0,567,512
12,1,1,0,0,566,511
13,1,1,0,0,564,511
14,1,1,0,0,562,513
15,1,1,0,0,560,512
0,1,1,0,0,557,513
1,1,1,0,0,555,512
2,1,1,0,0,553,516
3,1,1,0,0,551,511
4,1,1,0,0,549,513
5,1,1,0,0,547,514
6,1,1,0,0,544,513
7,1,1,0,0,542,516
8,1,1,0,0,540,515
9,1,1,0,0,539,518
10,1,1,0,0,538,518
11,1,1,0,0,537,515
12,1,1,0,0,536,515
13,1,1,0,0,536,516
14,1,1,0,0,535,515
15,1,1,0,0,533,516
0,1,1,0,0,531,516
1,1,1,0,0,530,519
2,1,1,0,0,528,518
3,1,1,0,0,526,515
4,1,1,0,0,523,519
5,1,1,0,0,521,519
6,1,1,0,0,518,518
7,1,1,0,0,514,519
8,1,1,0,0,512,518
9,1,1,0,0,511,519
10,1,1,0,0,508,519
11,1,1,0,0,506,518
12,1,1,0,0,504,520
13,1,1,0,0,502,518
14,1,1,0,0,500,519
15,1,1,0,0,499,519
0,1,1,0,0,498,519
1,1,1,0,0,497,516
2,1,1,0,0,496,519
3,1,1,0,0,494,520
4,1,1,0,0,493,520
5,1,1,0,0,492,519
6,1,1,0,0,491,520
7,1,1,0,0,489,522
8,1,1,0,0,487,519
9,1,1,0,0,485,523
10,1,1,0,0,484,519
11,1,1,0,0,482,522
12,1,1,0,0,480,521
13,1,1,0,0,477,521
14,1,1,0,0,476,521
15,1,1,0,0,476,521
0,1,1,0,0,475,519
1,1,1,0,0,474,521
2,1,1,0,0,473,520
3,1,1,0,0,473,524
4,1,1,0,0,474,523
5,1,1,0,0,475,521
6,1,1,0,0,476,523
7,1,1,0,0,476,524
8,1,1,0,0,476,526
9,1,1,0,0,475,524
10,1,1,0,0,473,525
11,1,1,0,0,472,525
12,1,1,0,0,470,523
13,1,1,0,0,469,523
14,1,1,0,0,468,527
15,1,1,0,0,469,525
0,1,1,0,0,470,524
1,1,1,0,0,471,524
2,1,1,0,0,472,525
3,1,1,0,0,474,527
4,1,1,0,0,474,526
5,1,1,0,0,473,524
6,1,1,0,0,473,527
7,1,1,0,0,473,524
8,1,1,0,0,472,527
9,1,1,0,0,471,525
10,1,1,0,0,472,525
11,1,1,0,0,472,526
12,1,1,0,0,472,524
13,1,1,0,0,472,525
14,1,1,0,0,473,527
15,1,1,0,0,472,524
0,1,1,0,0,472,526
1,1,1,0,0,471,526
2,1,1,0,0,471,529
3,1,1,0,0,470,524
4,1,1,0,0,469,526
5,1,1,0,0,467,527
6,1,1,0,0,465,526
7,1,1,0,0,464,529
8,1,1,0,0,462,525
9,1,1,0,0,463,529
10,1,1,0,0,464,529
11,1,1,0,0,465,527
12,1,1,0,0,467,527
13,1,1,0,0,469,529
14,1,1,0,0,470,527
15,1,1,0,0,470,528
0,1,1,0,0,472,527
1,1,1,0,0,472,530
2,1,1,0,0,472,530
3,1,1,0,0,472,528
4,1,1,0,0,472,529
5,1,1,0,0,473,529
6,1,1,0,0,474,529
7,1,1,0,0,474,530
8,1,1,0,0,475,529
9,1,1,0,0,475,531
10,1,1,0,0,475,530
11,1,1,0,0,475,529
12,1,1,0,0,475,530
13,1,1,0,0,475,529
14,1,1,0,0,476,530
15,1,1,0,0,477,529
0,1,1,0,0,479,533
1,1,1,0,0,480,531
2,1,1,0,0,482,528
3,1,1,0,0,484,531
4,1,1,0,0,486,532
5,1,1,0,0,487,530
6,1,1,0,0,488,531
7,1,1,0,0,489,530
8,1,1,0,0,487,531
9,1,1,0,0,487,530
10,1,1,0,0,486,529
11,1,1,0,0,487,530
12,1,1,0,0,488,528
13,1,1,0,0,490,529
14,1,1,0,0,491,529
15,1,1,0,0,491,528
0,1,1,0,0,491,526
1,1,1,0,0,490,528
2,1,1,0,0,488,529
3,1,1,0,0,487,529
4,1,1,0,0,484,528
5,1,1,0,0,482,530
6,1,1,0,0,480,530
7,1,1,0,0,480,526
8,1,1,0,0,480,529
9,1,1,0,0,480,529
10,1,1,0,0,481,524
11,1,1,0,0,482,527
12,1,1,0,0,482,526
13,1,1,0,0,483,526
14,1,1,0,0,483,528
15,1,1,0,0,483,523
0,1,1,0,0,483,524
1,1,1,0,0,484,526
2,1,1,0,0,485,526
3,1,1,0,0,487,528
4,1,1,0,0,488,522
5,1,1,0,0,490,525
6,1,1,0,0,492,526
7,1,1,0,0,495,524
8,1,1,0,0,497,525
9,1,1,0,0,499,520
10,1,1,0,0,501,524
11,1,1,0,0,502,523
12,1,1,0,0,502,521
13,1,1,0,0,503,523
14,1,1,0,0,504,518
15,1,1,0,0,504,520
0,1,1,0,0,503,519
1,1,1,0,0,502,523
2,1,1,0,0,502,523
3,1,1,0,0,501,518
4,1,1,0,0,500,519
5,1,1,0,0,499,521
6,1,1,0,0,499,521
7,1,1,0,0,499,521
8,1,1,0,0,499,515
9,1,1,0,0,499,519
10,1,1,0,0,500,519
11,1,1,0,0,502,516
12,1,1,0,0,504,519
13,1,1,0,0,505,514
14,1,1,0,0,505,516
15,1,1,0,0,504,516
0,1,1,0,0,503,516
1,1,1,0,0,502,519
2,1,1,0,0,502,513
3,1,1,0,0,501,515
4,1,1,0,0,500,516
5,1,1,0,0,499,516
6,1,1,0,0,498,517
7,1,1,0,0,497,511
8,1,1,0,0,497,515
9,1,1,0,0,497,512
10,1,1,0,0,497,514
11,1,1,0,0,498,513
12,1,1,0,0,499,515
13,1,1,0,0,501,513
14,1,1,0,0,502,513
15,1,1,0,0,504,513
0,1,1,0,0,505,512
1,1,1,0,0,506,513
2,1,1,0,0,507,512
3,1,1,0,0,507,511
4,1,1,0,0,508,514
5,1,1,0,0,508,512
6,1,1,0,0,509,514
7,1,1,0,0,510,514
8,1,1,0,0,511,510
9,1,1,0,0,511,514
10,1,1,0,0,510,511
11,1,1,0,0,511,513
12,1,1,0,0,512,511
13,1,1,0,0,512,511
14,1,1,0,0,513,511
15,1,1,0,0,514,511
0,1,1,0,0,515,512
1,1,1,0,0,515,510
2,1,1,0,0,514,509
3,1,1,0,0,513,512
4,1,1,0,0,513,514
5,1,1,0,0,512,508
6,1,1,0,0,512,511
7,1,1,0,0,512,510
8,1,1,0,0,511,508
9,1,1,0,0,510,510
10,1,1,0,0,510,504
11,1,1,0,0,510,508
12,1,1,0,0,510,506
13,1,1,0,0,508,507
14,1,1,0,0,508,509
15,1,1,0,0,507,503
0,1,1,0,0,507,505
1,1,1,0,0,507,506
2,1,1,0,0,507,506
3,1,1,0,0,508,509
4,1,1,0,0,508,503
5,1,1,0,0,510,504
6,1,1,0,0,510,506
7,1,1,0,0,510,505
8,1,1,0,0,511,506
9,1,1,0,0,512,500
10,1,1,0,0,513,505
11,1,1,0,0,514,501
12,1,1,0,0,515,504
13,1,1,0,0,516,507
14,1,1,0,0,517,501
15,1,1,0,0,518,503
0,1,1,0,0,517,504
1,1,1,0,0,518,504
2,1,1,0,0,518,506
3,1,1,0,0,518,501
4,1,1,0,0,519,503
5,1,1,0,0,520,502
6,1,1,0,0,521,506
7,1,1,0,0,520,504
8,1,1,0,0,518,505
9,1,1,0,0,515,504
10,1,1,0,0,513,501
11,1,1,0,0,512,505
12,1,1,0,0,511,504
13,1,1,0,0,512,504
14,1,1,0,0,513,504
15,1,1,0,0,512,506
0,1,1,0,0,512,503
1,1,1,0,0,513,505
2,1,1,0,0,512,505
3,1,1,0,0,511,503
4,1,1,0,0,509,504
5,1,1,0,0,506,503
6,1,1,0,0,504,503
7,1,1,0,0,502,505
8,1,1,0,0,501,504
9,1,1,0,0,499,505
10,1,1,0,0,499,502
11,1,1,0,0,498,505
12,1,1,0,0,498,504
13,1,1,0,0,500,503
14,1,1,0,0,504,504
15,1,1,0,0,507,502
0,1,1,0,0,510,502
1,1,1,0,0,513,504
2,1,1,0,0,515,503
3,1,1,0,0,515,504
4,1,1,0,0,516,502
5,1,1,0,0,513,503
6,1,1,0,0,511,504
7,1,1,0,0,509,501
8,1,1,0,0,508,504
9,1,1,0,0,507,504
10,1,1,0,0,507,503
11,1,1,0,0,505,504
12,1,1,0,0,505,502
13,1,1,0,0,504,503
14,1,1,0,0,504,502
15,1,1,0,0,504,506
0,1,1,0,0,504,504
1,1,1,0,0,504,502
2,1,1,0,0,505,503
3,1,1,0,0,506,504
4,1,1,0,0,509,506
5,1,1,0,0,510,504
6,1,1,0,0,511,502
7,1,1,0,0,512,506
8,1,1,0,0,513,502
9,1,1,0,0,513,505
10,1,1,0,0,514,501
11,1,1,0,0,514,504
12,1,1,0,0,513,503
13,1,1,0,0,513,504
14,1,1,0,0,513,503
15,1,1,0,0,512,504
0,1,1,0,0,512,502
1,1,1,0,0,512,504
2,1,1,0,0,512,502
3,1,1,0,0,513,505
4,1,1,0,0,515,505
5,1,1,0,0,516,504
6,1,1,0,0,518,503
7,1,1,0,0,520,505
8,1,1,0,0,523,504
9,1,1,0,0,525,505
10,1,1,0,0,527,507
11,1,1,0,0,528,505
12,1,1,0,0,528,504
13,1,1,0,0,528,503
14,1,1,0,0,527,502
15,1,1,0,0,526,504
0,1,1,0,0,526,505
1,1,1,0,0,525,505
2,1,1,0,0,524,508
3,1,1,0,0,523,503
4,1,1,0,0,522,505
5,1,1,0,0,521,503
6,1,1,0,0,520,508
7,1,1,0,0,519,504
8,1,1,0,0,518,507
9,1,1,0,0,518,507
10,1,1,0,0,519,506
11,1,1,0,0,521,505
12,1,1,0,0,522,505
13,1,1,0,0,524,507
14,1,1,0,0,526,506
15,1,1,0,0,528,507
0,1,1,0,0,529,507
1,1,1,0,0,528,507
2,1,1,0,0,527,505
3,1,1,0,0,524,507
4,1,1,0,0,522,508
5,1,1,0,0,521,508
6,1,1,0,0,519,508
7,1,1,0,0,518,509
8,1,1,0,0,515,510
9,1,1,0,0,511,507
10,1,1,0,0,509,511
11,1,1,0,0,508,508
12,1,1,0,0,506,511
13,1,1,0,0,505,508
14,1,1,0,0,504,509
15,1,1,0,0,504,509
0,1,1,0,0,505,509
1,1,1,0,0,506,510
2,1,1,0,0,506,509
3,1,1,0,0,505,511
4,1,1,0,0,504,509
5,1,1,0,0,505,512
6,1,1,0,0,504,512
7,1,1,0,0,504,511
8,1,1,0,0,504,510
9,1,1,0,0,502,514
10,1,1,0,0,502,510
11,1,1,0,0,502,512
12,1,1,0,0,504,511
13,1,1,0,0,505,512
14,1,1,0,0,507,511
15,1,1,0,0,509,512
0,1,1,0,0,512,510
1,1,1,0,0,513,512
2,1,1,0,0,517,511
3,1,1,0,0,520,515
4,1,1,0,0,522,513
5,1,1,0,0,523,511
6,1,1,0,0,525,513
7,1,1,0,0,526,515
8,1,1,0,0,526,516
9,1,1,0,0,525,514
10,1,1,0,0,524,515
11,1,1,0,0,523,515
12,1,1,0,0,522,514
13,1,1,0,0,522,513
14,1,1,0,0,522,517
15,1,1,0,0,522,515
0,1,1,0,0,522,514
1,1,1,0,0,522,514
2,1,1,0,0,524,515
3,1,1,0,0,524,517
4,1,1,0,0,525,515
5,1,1,0,0,525,513
6,1,1,0,0,527,517
7,1,1,0,0,528,513
8,1,1,0,0,530,517
9,1,1,0,0,530,514
10,1,1,0,0,532,514
11,1,1,0,0,532,515
12,1,1,0,0,532,514
13,1,1,0,0,531,514
14,1,1,0,0,531,512
15,1,1,0,0,530,514
0,1,1,0,0,529,514
1,1,1,0,0,528,515
2,1,1,0,0,526,514
3,1,1,0,0,523,516
4,1,1,0,0,519,516
5,1,1,0,0,515,513
6,1,1,0,0,512,518
7,1,1,0,0,509,515
8,1,1,0,0,507,517
9,1,1,0,0,505,515
10,1,1,0,0,504,515
11,1,1,0,0,504,515
12,1,1,0,0,504,514
13,1,1,0,0,504,516
14,1,1,0,0,504,515
15,1,1,0,0,506,515
0,1,1,0,0,507,515
1,1,1,0,0,508,518
2,1,1,0,0,510,513
3,1,1,0,0,511,515
4,1,1,0,0,512,516
5,1,1,0,0,513,514
6,1,1,0,0,515,517
7,1,1,0,0,516,516
8,1,1,0,0,516,514
9,1,1,0,0,517,518
10,1,1,0,0,517,517
11,1,1,0,0,517,515
12,1,1,0,0,516,516
13,1,1,0,0,515,514
14,1,1,0,0,514,515
15,1,1,0,0,512,515
0,1,1,0,0,511,518
1,1,1,0,0,508,515
2,1,1,0,0,505,513
3,1,1,0,0,503,517
4,1,1,0,0,501,516
5,1,1,0,0,499,515
6,1,1,0,0,497,516
7,1,1,0,0,498,515
8,1,1,0,0,498,515
9,1,1,0,0,498,515
10,1,1,0,0,499,514
11,1,1,0,0,498,514
12,1,1,0,0,497,513
13,1,1,0,0,496,513
14,1,1,0,0,497,514
15,1,1,0,0,498,513
0,1,1,0,0,499,511
1,1,1,0,0,501,513
2,1,1,0,0,503,513
3,1,1,0,0,504,513
4,1,1,0,0,507,513
5,1,1,0,0,508,514
6,1,1,0,0,509,515
7,1,1,0,0,509,511
8,1,1,0,0,510,514
9,1,1,0,0,510,511
10,1,1,0,0,510,512
11,1,1,0,0,511,513
12,1,1,0,0,510,511
13,1,1,0,0,509,511
14,1,1,0,0,508,511
15,1,1,0,0,507,509
0,1,1,0,0,506,510
1,1,1,0,0,505,512
2,1,1,0,0,506,512
3,1,1,0,0,507,514
4,1,1,0,0,508,508
5,1,1,0,0,509,510
6,1,1,0,0,511,509
7,1,1,0,0,512,513
8,1,1,0,0,513,510
9,1,1,0,0,514,512
10,1,1,0,0,515,511
11,1,1,0,0,514,512
12,1,1,0,0,513,512
13,1,1,0,0,513,510
14,1,1,0,0,512,510
15,1,1,0,0,512,509
0,1,1,0,0,511,509
1,1,1,0,0,511,508
2,1,1,0,0,510,512
3,1,1,0,0,510,510
4,1,1,0,0,510,509
5,1,1,0,0,509,509
6,1,1,0,0,511,510
7,1,1,0,0,512,512
8,1,1,0,0,512,508
9,1,1,0,0,512,508
10,1,1,0,0,513,511
11,1,1,0,0,515,507
12,1,1,0,0,518,509
13,1,1,0,0,522,510
14,1,1,0,0,526,508
15,1,1,0,0,533,508
0,1,1,0,0,541,508
1,1,1,0,0,550,508
2,1,1,0,0,559,506
3,1,1,0,0,566,508
4,1,1,0,0,574,506
5,1,1,0,0,581,510
6,1,1,0,0,585,511
7,1,1,0,0,587,505
8,1,1,0,0,586,509
9,1,1,0,0,584,508
10,1,1,0,0,583,506
11,1,1,0,0,583,508
12,1,1,0,0,582,503
13,1,1,0,0,582,505
14,1,1,0,0,582,505
15,1,1,0,0,580,506
0,1,1,0,0,579,509
1,1,1,0,0,575,504
2,1,1,0,0,570,505
3,1,1,0,0,565,506
4,1,1,0,0,558,506
5,1,1,0,0,550,509
6,1,1,0,0,540,504
7,1,1,0,0,531,507
8,1,1,0,0,523,506
9,1,1,0,0,514,504
10,1,1,0,0,505,506
11,1,1,0,0,496,501
12,1,1,0,0,489,503
13,1,1,0,0,482,502
14,1,1,0,0,470,505
15,1,1,0,0,450,507
0,1,1,0,0,426,502
1,1,1,0,0,396,503
2,1,1,0,0,361,504
3,1,1,0,0,327,504
4,1,1,0,0,295,507
5,1,1,0,0,272,502
6,1,1,0,0,257,504
7,1,1,0,0,250,504
8,1,1,0,0,246,504
9,1,1,0,0,242,506
10,1,1,0,0,235,500
11,1,1,0,0,227,504
12,1,1,0,0,222,502
13,1,1,0,0,223,503
14,1,1,0,0,231,505
15,1,1,0,0,242,501
0,1,1,0,0,253,503
1,1,1,0,0,266,504
2,1,1,0,0,281,503
3,1,1,0,0,300,506
4,1,1,0,0,321,501
5,1,1,0,0,344,503
6,1,1,0,0,368,502
7,1,1,0,0,391,506
8,1,1,0,0,413,506
9,1,1,0,0,432,500
10,1,1,0,0,451,504
11,1,1,0,0,470,504
12,1,1,0,0,485,503
13,1,1,0,0,497,505
14,1,1,0,0,507,500
15,1,1,0,0,515,503
0,1,1,0,0,522,503
1,1,1,0,0,527,504
2,1,1,0,0,532,507
3,1,1,0,0,535,501
4,1,1,0,0,538,503
5,1,1,0,0,541,504
6,1,1,0,0,543,504
7,1,1,0,0,546,502
8,1,1,0,0,549,505
9,1,1,0,0,553,504
10,1,1,0,0,556,502
11,1,1,0,0,558,505
12,1,1,0,0,560,503
13,1,1,0,0,561,506
14,1,1,0,0,562,504
15,1,1,0,0,563,503
0,1,1,0,0,565,507
1,1,1,0,0,567,505
2,1,1,0,0,568,507
3,1,1,0,0,569,505
4,1,1,0,0,570,504
5,1,1,0,0,570,508
6,1,1,0,0,571,505
7,1,1,0,0,571,507
8,1,1,0,0,571,507
9,1,1,0,0,568,504
10,1,1,0,0,566,508
11,1,1,0,0,564,506
12,1,1,0,0,562,508
13,1,1,0,0,562,506
14,1,1,0,0,562,507
15,1,1,0,0,563,506
0,1,1,0,0,563,506
1,1,1,0,0,563,507
2,1,1,0,0,563,507
3,1,1,0,0,562,505
4,1,1,0,0,561,510
5,1,1,0,0,560,507
6,1,1,0,0,560,505
7,1,1,0,0,559,506
8,1,1,0,0,558,508
9,1,1,0,0,558,509
10,1,1,0,0,558,508
11,1,1,0,0,559,505
12,1,1,0,0,560,507
13,1,1,0,0,560,508
14,1,1,0,0,561,507
15,1,1,0,0,563,507
0,1,1,0,0,563,508
1,1,1,0,0,564,507
2,1,1,0,0,565,508
3,1,1,0,0,565,507
4,1,1,0,0,565,509
5,1,1,0,0,564,509
6,1,1,0,0,564,507
7,1,1,0,0,565,511
8,1,1,0,0,566,510
9,1,1,0,0,566,507
10,1,1,0,0,566,507
11,1,1,0,0,566,509
12,1,1,0,0,564,507
13,1,1,0,0,563,506
14,1,1,0,0,561,509
15,1,1,0,0,558,507
0,1,1,0,0,556,506
1,1,1,0,0,554,507
2,1,1,0,0,554,507
3,1,1,0,0,554,510
4,1,1,0,0,553,507
5,1,1,0,0,553,506
6,1,1,0,0,554,510
7,1,1,0,0,556,505
8,1,1,0,0,558,509
9,1,1,0,0,559,504
10,1,1,0,0,560,507
11,1,1,0,0,560,506
12,1,1,0,0,560,506
13,1,1,0,0,560,505
14,1,1,0,0,558,507
15,1,1,0,0,557,505
0,1,1,0,0,554,507
1,1,1,0,0,553,507
2,1,1,0,0,552,506
3,1,1,0,0,552,505
4,1,1,0,0,553,506
5,1,1,0,0,552,507
6,1,1,0,0,553,508
7,1,1,0,0,553,505
8,1,1,0,0,553,507
9,1,1,0,0,555,509
10,1,1,0,0,558,505
11,1,1,0,0,560,509
12,1,1,0,0,561,505
13,1,1,0,0,563,507
14,1,1,0,0,565,507
15,1,1,0,0,566,507
0,1,1,0,0,567,507
1,1,1,0,0,568,506
2,1,1,0,0,567,504
3,1,1,0,0,565,506
4,1,1,0,0,562,505
5,1,1,0,0,559,509
6,1,1,0,0,557,507
7,1,1,0,0,555,507
8,1,1,0,0,551,509
9,1,1,0,0,549,508
10,1,1,0,0,547,507
11,1,1,0,0,545,507
12,1,1,0,0,544,507
13,1,1,0,0,544,507
14,1,1,0,0,544,508
15,1,1,0,0,544,508
0,1,1,0,0,546,507
1,1,1,0,0,547,506
2,1,1,0,0,549,507
3,1,1,0,0,551,508
4,1,1,0,0,552,508
5,1,1,0,0,555,507
6,1,1,0,0,557,507
7,1,1,0,0,558,510
8,1,1,0,0,558,506
9,1,1,0,0,558,509
10,1,1,0,0,559,507
11,1,1,0,0,558,508
12,1,1,0,0,556,507
13,1,1,0,0,555,507
14,1,1,0,0,553,507
15,1,1,0,0,553,506
0,1,1,0,0,554,505
1,1,1,0,0,556,506
2,1,1,0,0,557,505
3,1,1,0,0,557,510
4,1,1,0,0,558,507
5,1,1,0,0,560,506
6,1,1,0,0,561,506
7,1,1,0,0,563,508
8,1,1,0,0,564,510
9,1,1,0,0,566,507
10,1,1,0,0,568,507
11,1,1,0,0,570,508
12,1,1,0,0,571,507
13,1,1,0,0,570,506
14,1,1,0,0,569,509
15,1,1,0,0,568,507
0,1,1,0,0,566,507
1,1,1,0,0,565,507
2,1,1,0,0,565,507
3,1,1,0,0,564,510
4,1,1,0,0,563,506
5,1,1,0,0,562,505
6,1,1,0,0,562,509
7,1,1,0,0,563,507
8,1,1,0,0,565,508
9,1,1,0,0,568,505
10,1,1,0,0,569,504
11,1,1,0,0,571,508
12,1,1,0,0,572,506
13,1,1,0,0,572,504
14,1,1,0,0,572,506
15,1,1,0,0,572,505
0,1,1,0,0,571,507
1,1,1,0,0,568,505
2,1,1,0,0,567,509
3,1,1,0,0,565,506
4,1,1,0,0,563,504
5,1,1,0,0,563,507
6,1,1,0,0,563,505
7,1,1,0,0,563,508
8,1,1,0,0,565,503
9,1,1,0,0,565,506
10,1,1,0,0,566,506
11,1,1,0,0,565,505
12,1,1,0,0,565,505
13,1,1,0,0,566,506
14,1,1,0,0,566,505
15,1,1,0,0,566,506
0,1,1,0,0,565,506
1,1,1,0,0,564,505
2,1,1,0,0,564,504
3,1,1,0,0,563,505
4,1,1,0,0,563,506
5,1,1,0,0,562,507
6,1,1,0,0,560,505
7,1,1,0,0,558,506
8,1,1,0,0,556,508
9,1,1,0,0,555,504
10,1,1,0,0,553,509
11,1,1,0,0,553,505
12,1,1,0,0,554,507
13,1,1,0,0,555,506
14,1,1,0,0,556,506
15,1,1,0,0,557,506
0,1,1,0,0,556,506
1,1,1,0,0,555,505
2,1,1,0,0,553,506
3,1,1,0,0,551,505
4,1,1,0,0,547,509
5,1,1,0,0,543,507
6,1,1,0,0,538,509
7,1,1,0,0,533,508
8,1,1,0,0,527,509
9,1,1,0,0,523,507
10,1,1,0,0,519,507
11,1,1,0,0,515,508
12,1,1,0,0,512,507
13,1,1,0,0,509,508
14,1,1,0,0,508,507
15,1,1,0,0,508,511
0,1,1,0,0,508,509
1,1,1,0,0,508,508
2,1,1,0,0,508,508
3,1,1,0,0,507,509
4,1,1,0,0,505,511
5,1,1,0,0,503,510
6,1,1,0,0,499,508
7,1,1,0,0,496,513
8,1,1,0,0,493,508
9,1,1,0,0,492,512
10,1,1,0,0,491,507
11,1,1,0,0,489,511
12,1,1,0,0,486,510
13,1,1,0,0,484,510
14,1,1,0,0,481,510
15,1,1,0,0,479,511
0,1,1,0,0,476,510
1,1,1,0,0,473,511
2,1,1,0,0,472,512
3,1,1,0,0,471,511
4,1,1,0,0,468,510
5,1,1,0,0,467,511
6,1,1,0,0,466,513
7,1,1,0,0,466,513
8,1,1,0,0,466,512
9,1,1,0,0,465,514
10,1,1,0,0,466,516
11,1,1,0,0,466,512
12,1,1,0,0,467,515
13,1,1,0,0,469,515
14,1,1,0,0,471,516
15,1,1,0,0,472,515
0,1,1,0,0,471,516
1,1,1,0,0,470,515
2,1,1,0,0,469,515
3,1,1,0,0,467,519
4,1,1,0,0,465,516
5,1,1,0,0,464,518
6,1,1,0,0,464,517
7,1,1,0,0,463,518
8,1,1,0,0,463,519
9,1,1,0,0,463,517
10,1,1,0,0,462,520
11,1,1,0,0,460,520
12,1,1,0,0,457,518
13,1,1,0,0,455,520
14,1,1,0,0,454,519
15,1,1,0,0,453,520
0,1,1,0,0,452,521
1,1,1,0,0,452,523
2,1,1,0,0,453,521
3,1,1,0,0,452,520
4,1,1,0,0,453,523
5,1,1,0,0,454,521
6,1,1,0,0,455,525
7,1,1,0,0,458,521
8,1,1,0,0,460,524
9,1,1,0,0,461,523
10,1,1,0,0,462,523
11,1,1,0,0,463,523
12,1,1,0,0,465,524
13,1,1,0,0,466,524
14,1,1,0,0,467,525
15,1,1,0,0,468,525
0,1,1,0,0,469,524
1,1,1,0,0,469,524
2,1,1,0,0,468,525
3,1,1,0,0,467,526
4,1,1,0,0,465,527
5,1,1,0,0,464,526
6,1,1,0,0,462,526
7,1,1,0,0,461,529
8,1,1,0,0,462,525
9,1,1,0,0,462,529
10,1,1,0,0,462,526
11,1,1,0,0,463,527
12,1,1,0,0,463,527
13,1,1,0,0,465,527
14,1,1,0,0,467,528
15,1,1,0,0,470,527
0,1,1,0,0,474,526
1,1,1,0,0,477,527
2,1,1,0,0,479,529
3,1,1,0,0,480,529
4,1,1,0,0,482,532
5,1,1,0,0,483,527
6,1,1,0,0,483,529
7,1,1,0,0,482,532
8,1,1,0,0,480,530
9,1,1,0,0,477,531
10,1,1,0,0,474,526
11,1,1,0,0,473,530
12,1,1,0,0,473,528
13,1,1,0,0,475,529
14,1,1,0,0,476,531
15,1,1,0,0,476,527
0,1,1,0,0,475,528
1,1,1,0,0,474,527
2,1,1,0,0,473,531
3,1,1,0,0,473,533
4,1,1,0,0,472,528
5,1,1,0,0,472,529
6,1,1,0,0,472,531
7,1,1,0,0,473,529
8,1,1,0,0,474,531
9,1,1,0,0,476,526
10,1,1,0,0,480,530
11,1,1,0,0,480,528
12,1,1,0,0,483,527
13,1,1,0,0,485,530
14,1,1,0,0,486,525
15,1,1,0,0,487,527
0,1,1,0,0,487,527
1,1,1,0,0,486,528
2,1,1,0,0,486,530
3,1,1,0,0,484,526
4,1,1,0,0,484,527
5,1,1,0,0,484,527
6,1,1,0,0,484,528
7,1,1,0,0,485,529
8,1,1,0,0,486,524
9,1,1,0,0,487,528
10,1,1,0,0,488,527
11,1,1,0,0,488,526
12,1,1,0,0,489,527
13,1,1,0,0,489,524
14,1,1,0,0,489,525
15,1,1,0,0,489,525
0,1,1,0,0,490,526
1,1,1,0,0,489,527
2,1,1,0,0,489,524
3,1,1,0,0,489,524
4,1,1,0,0,488,525
5,1,1,0,0,487,524
6,1,1,0,0,487,527
7,1,1,0,0,487,523
8,1,1,0,0,487,524
9,1,1,0,0,487,526
10,1,1,0,0,488,523
11,1,1,0,0,489,525
12,1,1,0,0,490,521
13,1,1,0,0,491,522
14,1,1,0,0,492,523
15,1,1,0,0,493,523
0,1,1,0,0,495,525
1,1,1,0,0,497,520
2,1,1,0,0,500,521
3,1,1,0,0,503,522
4,1,1,0,0,503,522
5,1,1,0,0,503,525
6,1,1,0,0,503,519
7,1,1,0,0,502,522
8,1,1,0,0,502,521
9,1,1,0,0,501,519
10,1,1,0,0,500,521
11,1,1,0,0,498,515
12,1,1,0,0,496,517
13,1,1,0,0,494,517
14,1,1,0,0,492,518
15,1,1,0,0,492,516
0,1,1,0,0,493,520
1,1,1,0,0,494,516
2,1,1,0,0,495,517
3,1,1,0,0,497,517
4,1,1,0,0,498,519
5,1,1,0,0,500,514
6,1,1,0,0,501,518
7,1,1,0,0,504,516
8,1,1,0,0,505,514
9,1,1,0,0,507,515
10,1,1,0,0,508,511
11,1,1,0,0,509,514
12,1,1,0,0,509,512
13,1,1,0,0,510,512
14,1,1,0,0,510,515
15,1,1,0,0,512,510
0,1,1,0,0,512,511
1,1,1,0,0,512,511
2,1,1,0,0,511,510
3,1,1,0,0,510,513
4,1,1,0,0,509,512
5,1,1,0,0,509,510
6,1,1,0,0,510,514
7,1,1,0,0,511,509
8,1,1,0,0,511,512
9,1,1,0,0,511,508
10,1,1,0,0,510,508
11,1,1,0,0,508,511
12,1,1,0,0,507,508
13,1,1,0,0,506,511
14,1,1,0,0,505,510
15,1,1,0,0,505,508
0,1,1,0,0,505,511
1,1,1,0,0,505,508
2,1,1,0,0,506,511
3,1,1,0,0,506,508
4,1,1,0,0,506,508
5,1,1,0,0,507,510
6,1,1,0,0,505,508
7,1,1,0,0,504,511
8,1,1,0,0,503,510
9,1,1,0,0,501,508
10,1,1,0,0,499,512
11,1,1,0,0,497,507
12,1,1,0,0,496,510
13,1,1,0,0,496,506
14,1,1,0,0,496,507
15,1,1,0,0,496,509
0,1,1,0,0,496,507
1,1,1,0,0,498,510
2,1,1,0,0,498,508
3,1,1,0,0,498,506
4,1,1,0,0,499,509
5,1,1,0,0,499,510
6,1,1,0,0,500,507
7,1,1,0,0,501,509
8,1,1,0,0,503,507
9,1,1,0,0,504,507
10,1,1,0,0,505,507
11,1,1,0,0,507,505
12,1,1,0,0,508,506
13,1,1,0,0,510,505
14,1,1,0,0,511,506
15,1,1,0,0,512,506
0,1,1,0,0,512,505
1,1,1,0,0,512,504
2,1,1,0,0,512,504
3,1,1,0,0,511,505
4,1,1,0,0,511,505
5,1,1,0,0,512,504
6,1,1,0,0,513,504
7,1,1,0,0,514,507
8,1,1,0,0,516,502
9,1,1,0,0,518,506
10,1,1,0,0,519,503
11,1,1,0,0,520,504
12,1,1,0,0,519,503
13,1,1,0,0,519,504
14,1,1,0,0,518,503
15,1,1,0,0,516,503
0,1,1,0,0,515,501
1,1,1,0,0,512,502
2,1,1,0,0,512,501
3,1,1,0,0,512,505
4,1,1,0,0,511,503
5,1,1,0,0,511,501
6,1,1,0,0,510,502
7,1,1,0,0,508,503
8,1,1,0,0,508,506
9,1,1,0,0,507,503
10,1,1,0,0,507,502
11,1,1,0,0,508,504
12,1,1,0,0,510,502
13,1,1,0,0,511,502
14,1,1,0,0,512,504
15,1,1,0,0,512,500
0,1,1,0,0,512,501
1,1,1,0,0,512,502
2,1,1,0,0,512,502
3,1,1,0,0,512,501
4,1,1,0,0,512,505
5,1,1,0,0,512,502
6,1,1,0,0,511,500
7,1,1,0,0,510,504
8,1,1,0,0,509,500
9,1,1,0,0,507,501
10,1,1,0,0,508,504
11,1,1,0,0,510,502
12,1,1,0,0,511,500
13,1,1,0,0,512,500
14,1,1,0,0,514,499
15,1,1,0,0,516,500
0,1,1,0,0,519,502
1,1,1,0,0,520,501
2,1,1,0,0,521,504
3,1,1,0,0,521,499
4,1,1,0,0,521,501
5,1,1,0,0,520,500
6,1,1,0,0,519,504
7,1,1,0,0,518,500
8,1,1,0,0,518,503
9,1,1,0,0,518,503
10,1,1,0,0,518,503
11,1,1,0,0,519,501
12,1,1,0,0,519,501
13,1,1,0,0,519,502
14,1,1,0,0,519,501
15,1,1,0,0,520,502
0,1,1,0,0,520,502
1,1,1,0,0,520,505
2,1,1,0,0,520,502
3,1,1,0,0,521,503
4,1,1,0,0,521,503
5,1,1,0,0,521,504
6,1,1,0,0,520,506
7,1,1,0,0,519,504
8,1,1,0,0,518,502
9,1,1,0,0,517,507
10,1,1,0,0,515,502
11,1,1,0,0,515,505
12,1,1,0,0,516,503
13,1,1,0,0,517,504
14,1,1,0,0,519,505
15,1,1,0,0,520,504
0,1,1,0,0,520,504
1,1,1,0,0,520,505
2,1,1,0,0,519,504
3,1,1,0,0,519,507
4,1,1,0,0,519,508
5,1,1,0,0,517,506
6,1,1,0,0,516,509
7,1,1,0,0,515,507
8,1,1,0,0,512,507
9,1,1,0,0,509,507
10,1,1,0,0,507,506
11,1,1,0,0,504,506
12,1,1,0,0,503,506
13,1,1,0,0,502,507
14,1,1,0,0,503,508
15,1,1,0,0,504,507
0,1,1,0,0,504,506
1,1,1,0,0,505,507
2,1,1,0,0,506,508
3,1,1,0,0,505,508
4,1,1,0,0,504,508
5,1,1,0,0,504,511
6,1,1,0,0,504,511
7,1,1,0,0,505,507
8,1,1,0,0,506,510
9,1,1,0,0,507,507
10,1,1,0,0,508,508
11,1,1,0,0,508,511
12,1,1,0,0,507,508
13,1,1,0,0,508,508
14,1,1,0,0,507,508
15,1,1,0,0,507,508
0,1,1,0,0,507,509
1,1,1,0,0,508,510
2,1,1,0,0,508,510
3,1,1,0,0,508,513
4,1,1,0,0,508,509
5,1,1,0,0,509,510
6,1,1,0,0,508,509
7,1,1,0,0,508,513
8,1,1,0,0,508,510
9,1,1,0,0,508,513
10,1,1,0,0,508,512
11,1,1,0,0,508,513
12,1,1,0,0,508,511
13,1,1,0,0,508,511
14,1,1,0,0,510,512
15,1,1,0,0,512,512
0,1,1,0,0,511,512
1,1,1,0,0,511,512
2,1,1,0,0,511,515
3,1,1,0,0,509,512
4,1,1,0,0,510,512
5,1,1,0,0,510,513
6,1,1,0,0,511,513
7,1,1,0,0,513,515
8,1,1,0,0,515,513
9,1,1,0,0,517,513
10,1,1,0,0,520,516
11,1,1,0,0,522,512
12,1,1,0,0,525,515
13,1,1,0,0,527,512
14,1,1,0,0,530,513
15,1,1,0,0,532,514
0,1,1,0,0,534,514
1,1,1,0,0,534,514
2,1,1,0,0,534,515
3,1,1,0,0,534,515
4,1,1,0,0,534,515
5,1,1,0,0,533,514
6,1,1,0,0,531,517
7,1,1,0,0,530,516
8,1,1,0,0,529,515
9,1,1,0,0,528,516
10,1,1,0,0,526,515
11,1,1,0,0,524,514
12,1,1,0,0,523,515
13,1,1,0,0,523,515
14,1,1,0,0,524,515
15,1,1,0,0,524,514
0,1,1,0,0,526,518
1,1,1,0,0,527,513
2,1,1,0,0,528,515
3,1,1,0,0,528,515
4,1,1,0,0,529,514
5,1,1,0,0,528,517
6,1,1,0,0,527,515
7,1,1,0,0,528,514
8,1,1,0,0,527,518
9,1,1,0,0,525,516
10,1,1,0,0,524,514
11,1,1,0,0,522,514
12,1,1,0,0,520,513
13,1,1,0,0,519,514
14,1,1,0,0,518,514
15,1,1,0,0,517,517
0,1,1,0,0,517,514
1,1,1,0,0,517,514
2,1,1,0,0,519,515
3,1,1,0,0,521,515
4,1,1,0,0,523,517
5,1,1,0,0,523,515
6,1,1,0,0,521,514
7,1,1,0,0,520,517
8,1,1,0,0,518,513
9,1,1,0,0,515,516
10,1,1,0,0,513,512
11,1,1,0,0,510,515
12,1,1,0,0,506,515
13,1,1,0,0,505,513
14,1,1,0,0,505,513
15,1,1,0,0,505,513
0,1,1,0,0,505,513
1,1,1,0,0,504,513
2,1,1,0,0,505,514
3,1,1,0,0,505,513
4,1,1,0,0,505,511
5,1,1,0,0,504,513
6,1,1,0,0,504,514
7,1,1,0,0,504,514
8,1,1,0,0,504,513
9,1,1,0,0,505,513
10,1,1,0,0,507,516
11,1,1,0,0,508,511
12,1,1,0,0,508,515
13,1,1,0,0,508,513
14,1,1,0,0,507,513
15,1,1,0,0,506,513
0,1,1,0,0,506,514
1,1,1,0,0,505,513
2,1,1,0,0,504,513
3,1,1,0,0,504,515
4,1,1,0,0,504,513
5,1,1,0,0,504,513
6,1,1,0,0,504,512
7,1,1,0,0,504,515
8,1,1,0,0,504,512
9,1,1,0,0,505,513
10,1,1,0,0,505,513
11,1,1,0,0,507,512
12,1,1,0,0,509,511
13,1,1,0,0,511,512
14,1,1,0,0,511,512
15,1,1,0,0,511,512
0,1,1,0,0,510,511
1,1,1,0,0,508,514
2,1,1,0,0,506,510
3,1,1,0,0,504,510
4,1,1,0,0,502,512
5,1,1,0,0,500,510
6,1,1,0,0,500,512
7,1,1,0,0,500,510
8,1,1,0,0,500,510
9,1,1,0,0,501,513
10,1,1,0,0,502,512
11,1,1,0,0,503,510
12,1,1,0,0,504,510
13,1,1,0,0,507,510
14,1,1,0,0,508,510
15,1,1,0,0,510,509
0,1,1,0,0,511,513
1,1,1,0,0,514,508
2,1,1,0,0,515,509
3,1,1,0,0,516,510
4,1,1,0,0,517,508
5,1,1,0,0,518,512
6,1,1,0,0,519,508
7,1,1,0,0,519,508
8,1,1,0,0,518,511
9,1,1,0,0,517,508
10,1,1,0,0,515,509
11,1,1,0,0,512,504
12,1,1,0,0,509,506
13,1,1,0,0,506,507
14,1,1,0,0,505,507
15,1,1,0,0,504,510
0,1,1,0,0,506,505
1,1,1,0,0,508,506
2,1,1,0,0,510,507
3,1,1,0,0,514,507
4,1,1,0,0,519,510
5,1,1,0,0,524,505
6,1,1,0,0,529,508
7,1,1,0,0,536,507
8,1,1,0,0,545,505
9,1,1,0,0,553,507
10,1,1,0,0,561,503
11,1,1,0,0,568,506
12,1,1,0,0,574,504
13,1,1,0,0,579,504
14,1,1,0,0,582,507
15,1,1,0,0,583,503
0,1,1,0,0,580,503
1,1,1,0,0,577,504
2,1,1,0,0,575,505
3,1,1,0,0,574,507
4,1,1,0,0,575,504
5,1,1,0,0,575,504
6,1,1,0,0,578,506
7,1,1,0,0,579,504
8,1,1,0,0,579,505
9,1,1,0,0,579,501
10,1,1,0,0,577,504
11,1,1,0,0,575,504
12,1,1,0,0,571,502
13,1,1,0,0,563,502
14,1,1,0,0,554,502
15,1,1,0,0,545,502
0,1,1,0,0,536,503
1,1,1,0,0,529,503
2,1,1,0,0,520,505
3,1,1,0,0,510,501
4,1,1,0,0,501,502
5,1,1,0,0,493,503
6,1,1,0,0,481,504
7,1,1,0,0,463,506
8,1,1,0,0,440,501
9,1,1,0,0,411,504
10,1,1,0,0,376,500
11,1,1,0,0,339,504
12,1,1,0,0,305,500
13,1,1,0,0,278,504
14,1,1,0,0,261,503
15,1,1,0,0,252,501
0,1,1,0,0,248,504
1,1,1,0,0,245,503
2,1,1,0,0,240,503
3,1,1,0,0,231,504
4,1,1,0,0,224,501
5,1,1,0,0,223,504
6,1,1,0,0,229,504
7,1,1,0,0,239,504
8,1,1,0,0,250,506
9,1,1,0,0,262,502
10,1,1,0,0,277,504
11,1,1,0,0,294,504
12,1,1,0,0,314,503
13,1,1,0,0,335,504
14,1,1,0,0,358,504
15,1,1,0,0,383,504
0,1,1,0,0,407,504
1,1,1,0,0,428,503
2,1,1,0,0,449,504
3,1,1,0,0,467,504
4,1,1,0,0,483,505
5,1,1,0,0,496,507
6,1,1,0,0,508,503
7,1,1,0,0,517,504
8,1,1,0,0,525,503
9,1,1,0,0,532,507
10,1,1,0,0,538,504
11,1,1,0,0,542,507
12,1,1,0,0,547,505
13,1,1,0,0,551,506
14,1,1,0,0,553,505
15,1,1,0,0,556,505
0,1,1,0,0,558,505
1,1,1,0,0,561,505
2,1,1,0,0,565,504
3,1,1,0,0,570,508
4,1,1,0,0,574,506
5,1,1,0,0,578,504
6,1,1,0,0,580,505
7,1,1,0,0,581,507
8,1,1,0,0,580,509
9,1,1,0,0,579,509
10,1,1,0,0,576,505
11,1,1,0,0,573,508
12,1,1,0,0,570,505
13,1,1,0,0,568,505
14,1,1,0,0,564,505
15,1,1,0,0,562,505
0,1,1,0,0,561,505
1,1,1,0,0,561,506
2,1,1,0,0,560,506
3,1,1,0,0,560,505
4,1,1,0,0,560,508
5,1,1,0,0,561,506
6,1,1,0,0,562,504
7,1,1,0,0,563,508
8,1,1,0,0,563,505
9,1,1,0,0,564,504
10,1,1,0,0,566,508
11,1,1,0,0,567,505
12,1,1,0,0,568,504
13,1,1,0,0,569,505
14,1,1,0,0,570,504
15,1,1,0,0,570,505
0,1,1,0,0,569,506
1,1,1,0,0,567,506
2,1,1,0,0,566,508
3,1,1,0,0,564,504
4,1,1,0,0,562,505
5,1,1,0,0,560,504
6,1,1,0,0,559,508
7,1,1,0,0,558,505
8,1,1,0,0,557,507
9,1,1,0,0,556,506
10,1,1,0,0,556,506
11,1,1,0,0,557,505
12,1,1,0,0,558,505
13,1,1,0,0,560,505
14,1,1,0,0,563,505
15,1,1,0,0,565,505
0,1,1,0,0,564,505
1,1,1,0,0,564,508
2,1,1,0,0,565,505
3,1,1,0,0,565,505
4,1,1,0,0,565,506
5,1,1,0,0,564,507
6,1,1,0,0,563,509
7,1,1,0,0,562,505
8,1,1,0,0,562,505
9,1,1,0,0,561,509
10,1,1,0,0,561,505
11,1,1,0,0,561,509
12,1,1,0,0,561,506
13,1,1,0,0,562,507
14,1,1,0,0,564,508
15,1,1,0,0,566,507
0,1,1,0,0,567,507
1,1,1,0,0,568,507
2,1,1,0,0,570,506
3,1,1,0,0,571,508
4,1,1,0,0,570,510
5,1,1,0,0,569,508
6,1,1,0,0,567,510
7,1,1,0,0,566,508
8,1,1,0,0,564,509
9,1,1,0,0,563,508
10,1,1,0,0,563,507
11,1,1,0,0,561,506
12,1,1,0,0,560,507
13,1,1,0,0,559,507
14,1,1,0,0,560,508
15,1,1,0,0,560,507
0,1,1,0,0,561,506
1,1,1,0,0,563,507
2,1,1,0,0,564,508
3,1,1,0,0,566,508
4,1,1,0,0,567,507
5,1,1,0,0,568,510
6,1,1,0,0,568,510
7,1,1,0,0,568,505
8,1,1,0,0,568,509
9,1,1,0,0,566,505
10,1,1,0,0,564,505
11,1,1,0,0,563,508
12,1,1,0,0,561,507
13,1,1,0,0,561,506
14,1,1,0,0,560,506
15,1,1,0,0,559,505
0,1,1,0,0,558,506
1,1,1,0,0,558,507
2,1,1,0,0,557,508
3,1,1,0,0,556,509
4,1,1,0,0,554,505
5,1,1,0,0,552,506
6,1,1,0,0,549,505
7,1,1,0,0,547,509
8,1,1,0,0,547,505
9,1,1,0,0,546,509
10,1,1,0,0,545,508
11,1,1,0,0,545,508
12,1,1,0,0,547,506
13,1,1,0,0,548,506
14,1,1,0,0,549,505
15,1,1,0,0,551,506
0,1,1,0,0,552,507
1,1,1,0,0,553,506
2,1,1,0,0,553,509
3,1,1,0,0,553,506
4,1,1,0,0,554,506
5,1,1,0,0,554,507
6,1,1,0,0,554,508
7,1,1,0,0,554,510
8,1,1,0,0,555,507
9,1,1,0,0,555,506
10,1,1,0,0,556,510
11,1,1,0,0,557,505
12,1,1,0,0,559,508
13,1,1,0,0,561,506
14,1,1,0,0,563,507
15,1,1,0,0,564,508
0,1,1,0,0,566,507
1,1,1,0,0,566,507
2,1,1,0,0,567,506
3,1,1,0,0,567,507
4,1,1,0,0,567,505
5,1,1,0,0,567,509
6,1,1,0,0,567,507
7,1,1,0,0,566,510
8,1,1,0,0,566,509
9,1,1,0,0,567,508
10,1,1,0,0,568,507
11,1,1,0,0,568,507
12,1,1,0,0,568,507
13,1,1,0,0,567,507
14,1,1,0,0,568,507
15,1,1,0,0,568,507
0,1,1,0,0,569,509
1,1,1,0,0,569,506
2,1,1,0,0,571,507
3,1,1,0,0,572,507
4,1,1,0,0,572,508
5,1,1,0,0,571,510
6,1,1,0,0,570,506
7,1,1,0,0,569,507
8,1,1,0,0,568,510
9,1,1,0,0,567,505
10,1,1,0,0,568,509
11,1,1,0,0,568,505
12,1,1,0,0,570,507
13,1,1,0,0,573,507
14,1,1,0,0,577,507
15,1,1,0,0,581,506
0,1,1,0,0,583,506
1,1,1,0,0,585,507
2,1,1,0,0,585,507
3,1,1,0,0,583,505
4,1,1,0,0,579,508
5,1,1,0,0,575,506
6,1,1,0,0,571,508
7,1,1,0,0,568,508
8,1,1,0,0,565,506
9,1,1,0,0,563,508
10,1,1,0,0,561,503
11,1,1,0,0,560,506
12,1,1,0,0,559,504
13,1,1,0,0,558,505
14,1,1,0,0,558,507
15,1,1,0,0,558,504
0,1,1,0,0,557,505
1,1,1,0,0,556,505
2,1,1,0,0,555,506
3,1,1,0,0,555,508
4,1,1,0,0,554,505
5,1,1,0,0,552,505
6,1,1,0,0,550,507
7,1,1,0,0,548,505
8,1,1,0,0,547,507
9,1,1,0,0,545,503
10,1,1,0,0,543,506
11,1,1,0,0,542,505
12,1,1,0,0,540,504
13,1,1,0,0,539,506
14,1,1,0,0,537,502
15,1,1,0,0,535,503
0,1,1,0,0,532,505
1,1,1,0,0,529,504
2,1,1,0,0,527,507
3,1,1,0,0,524,505
4,1,1,0,0,521,505
5,1,1,0,0,518,507
6,1,1,0,0,516,505
7,1,1,0,0,513,508
8,1,1,0,0,511,505
9,1,1,0,0,510,506
10,1,1,0,0,508,509
11,1,1,0,0,507,505
12,1,1,0,0,507,507
13,1,1,0,0,507,506
14,1,1,0,0,507,507
15,1,1,0,0,507,507
0,1,1,0,0,508,507
1,1,1,0,0,507,507
2,1,1,0,0,504,507
3,1,1,0,0,502,508
4,1,1,0,0,498,508
5,1,1,0,0,494,509
6,1,1,0,0,488,511
7,1,1,0,0,482,508
8,1,1,0,0,476,509
9,1,1,0,0,470,508
10,1,1,0,0,465,512
11,1,1,0,0,462,509
12,1,1,0,0,459,512
13,1,1,0,0,458,511
14,1,1,0,0,458,512
15,1,1,0,0,458,511
0,1,1,0,0,459,514
1,1,1,0,0,459,511
2,1,1,0,0,460,512
3,1,1,0,0,460,510
4,1,1,0,0,460,515
5,1,1,0,0,461,513
6,1,1,0,0,461,516
7,1,1,0,0,462,515
8,1,1,0,0,463,515
9,1,1,0,0,463,514
10,1,1,0,0,462,514
11,1,1,0,0,462,513
12,1,1,0,0,461,515
13,1,1,0,0,460,515
14,1,1,0,0,461,515
15,1,1,0,0,463,518
0,1,1,0,0,465,515
1,1,1,0,0,467,516
2,1,1,0,0,470,517
3,1,1,0,0,472,517
4,1,1,0,0,474,519
5,1,1,0,0,474,517
6,1,1,0,0,473,517
7,1,1,0,0,473,521
8,1,1,0,0,471,517
9,1,1,0,0,468,521
10,1,1,0,0,465,517
11,1,1,0,0,463,519
12,1,1,0,0,462,519
13,1,1,0,0,460,519
14,1,1,0,0,459,519
15,1,1,0,0,457,519
0,1,1,0,0,455,520
1,1,1,0,0,455,521
2,1,1,0,0,455,519
3,1,1,0,0,456,523
4,1,1,0,0,458,522
5,1,1,0,0,459,522
6,1,1,0,0,459,521
7,1,1,0,0,460,524
8,1,1,0,0,461,523
9,1,1,0,0,462,522
10,1,1,0,0,462,526
11,1,1,0,0,462,524
12,1,1,0,0,463,523
13,1,1,0,0,464,524
14,1,1,0,0,466,524
15,1,1,0,0,466,524
0,1,1,0,0,467,525
1,1,1,0,0,467,525
2,1,1,0,0,469,527
3,1,1,0,0,470,524
4,1,1,0,0,471,526
5,1,1,0,0,471,524
6,1,1,0,0,471,528
7,1,1,0,0,471,528
8,1,1,0,0,471,524
9,1,1,0,0,472,527
10,1,1,0,0,472,527
11,1,1,0,0,473,525
12,1,1,0,0,474,527
13,1,1,0,0,475,524
14,1,1,0,0,475,525
15,1,1,0,0,475,526
0,1,1,0,0,473,526
1,1,1,0,0,473,528
2,1,1,0,0,473,525
3,1,1,0,0,472,526
4,1,1,0,0,471,526
5,1,1,0,0,470,527
6,1,1,0,0,468,527
7,1,1,0,0,468,525
8,1,1,0,0,468,528
9,1,1,0,0,469,526
10,1,1,0,0,470,525
11,1,1,0,0,471,527
12,1,1,0,0,472,523
13,1,1,0,0,474,524
14,1,1,0,0,476,523
15,1,1,0,0,478,525
0,1,1,0,0,479,527
1,1,1,0,0,480,524
2,1,1,0,0,483,525
3,1,1,0,0,484,526
4,1,1,0,0,486,526
5,1,1,0,0,487,528
6,1,1,0,0,487,524
7,1,1,0,0,487,527
8,1,1,0,0,487,526
9,1,1,0,0,487,524
10,1,1,0,0,486,525
11,1,1,0,0,486,521
12,1,1,0,0,485,523
13,1,1,0,0,485,523
14,1,1,0,0,485,523
15,1,1,0,0,486,525
0,1,1,0,0,486,522
1,1,1,0,0,486,523
2,1,1,0,0,487,524
3,1,1,0,0,487,524
4,1,1,0,0,488,526
5,1,1,0,0,489,523
6,1,1,0,0,491,524
7,1,1,0,0,492,521
8,1,1,0,0,493,524
9,1,1,0,0,492,524
10,1,1,0,0,492,520
11,1,1,0,0,491,523
12,1,1,0,0,490,519
13,1,1,0,0,489,522
14,1,1,0,0,487,523
15,1,1,0,0,487,520
0,1,1,0,0,488,521
1,1,1,0,0,489,519
2,1,1,0,0,491,523
3,1,1,0,0,493,520
4,1,1,0,0,495,522
5,1,1,0,0,496,521
6,1,1,0,0,499,519
7,1,1,0,0,501,523
8,1,1,0,0,502,519
9,1,1,0,0,503,521
10,1,1,0,0,504,520
11,1,1,0,0,503,517
12,1,1,0,0,504,521
13,1,1,0,0,505,518
14,1,1,0,0,506,521
15,1,1,0,0,506,519
0,1,1,0,0,505,519
1,1,1,0,0,504,518
2,1,1,0,0,502,518
3,1,1,0,0,501,517
4,1,1,0,0,499,518
5,1,1,0,0,496,516
6,1,1,0,0,494,519
7,1,1,0,0,492,517
8,1,1,0,0,492,515
9,1,1,0,0,492,516
10,1,1,0,0,494,518
11,1,1,0,0,494,519
12,1,1,0,0,495,516
13,1,1,0,0,497,515
14,1,1,0,0,498,516
15,1,1,0,0,499,516
0,1,1,0,0,500,515
1,1,1,0,0,500,517
2,1,1,0,0,501,515
3,1,1,0,0,502,513
4,1,1,0,0,501,516
5,1,1,0,0,500,517
6,1,1,0,0,499,514
7,1,1,0,0,499,516
8,1,1,0,0,499,516
9,1,1,0,0,499,514
10,1,1,0,0,499,513
11,1,1,0,0,499,511
12,1,1,0,0,499,512
13,1,1,0,0,499,512
14,1,1,0,0,500,512
15,1,1,0,0,501,512
0,1,1,0,0,503,511
1,1,1,0,0,505,511
2,1,1,0,0,506,511
3,1,1,0,0,508,511
4,1,1,0,0,510,511
5,1,1,0,0,511,510
6,1,1,0,0,513,510
7,1,1,0,0,514,513
8,1,1,0,0,514,508
9,1,1,0,0,513,511
10,1,1,0,0,512,508
11,1,1,0,0,511,509
12,1,1,0,0,510,509
13,1,1,0,0,508,509
14,1,1,0,0,505,508
15,1,1,0,0,503,508
0,1,1,0,0,500,507
1,1,1,0,0,498,508
2,1,1,0,0,497,507
3,1,1,0,0,498,507
4,1,1,0,0,499,508
5,1,1,0,0,500,506
6,1,1,0,0,501,507
7,1,1,0,0,503,506
8,1,1,0,0,504,505
9,1,1,0,0,505,508
10,1,1,0,0,506,505
11,1,1,0,0,504,504
12,1,1,0,0,503,506
13,1,1,0,0,501,508
14,1,1,0,0,499,505
15,1,1,0,0,497,504
0,1,1,0,0,494,505
1,1,1,0,0,493,505
2,1,1,0,0,492,503
3,1,1,0,0,492,507
4,1,1,0,0,492,504
5,1,1,0,0,492,504
6,1,1,0,0,493,503
7,1,1,0,0,495,506
8,1,1,0,0,496,504
9,1,1,0,0,497,503
10,1,1,0,0,498,507
11,1,1,0,0,499,504
12,1,1,0,0,501,503
13,1,1,0,0,502,503
14,1,1,0,0,504,502
15,1,1,0,0,504,503
0,1,1,0,0,505,504
1,1,1,0,0,505,503
2,1,1,0,0,505,504
3,1,1,0,0,505,502
4,1,1,0,0,507,502
5,1,1,0,0,508,500
6,1,1,0,0,508,505
7,1,1,0,0,509,501
8,1,1,0,0,509,503
9,1,1,0,0,509,503
10,1,1,0,0,509,501
11,1,1,0,0,509,502
12,1,1,0,0,509,501
13,1,1,0,0,509,500
14,1,1,0,0,510,501
15,1,1,0,0,511,502
0,1,1,0,0,511,502
1,1,1,0,0,510,501
2,1,1,0,0,510,501
3,1,1,0,0,510,501
4,1,1,0,0,509,502
5,1,1,0,0,508,502
6,1,1,0,0,508,501
7,1,1,0,0,508,501
8,1,1,0,0,508,504
9,1,1,0,0,509,500
10,1,1,0,0,510,504
11,1,1,0,0,510,501
12,1,1,0,0,510,502
13,1,1,0,0,511,501
14,1,1,0,0,512,502
15,1,1,0,0,514,501
0,1,1,0,0,515,500
1,1,1,0,0,516,500
2,1,1,0,0,517,502
3,1,1,0,0,517,501
4,1,1,0,0,518,500
5,1,1,0,0,519,503
6,1,1,0,0,519,501
7,1,1,0,0,518,502
8,1,1,0,0,518,500
9,1,1,0,0,517,505
10,1,1,0,0,516,501
11,1,1,0,0,517,500
12,1,1,0,0,518,502
13,1,1,0,0,519,502
14,1,1,0,0,519,502
15,1,1,0,0,519,502
0,1,1,0,0,519,502
1,1,1,0,0,519,502
2,1,1,0,0,519,501
3,1,1,0,0,519,504
4,1,1,0,0,518,502
5,1,1,0,0,516,500
6,1,1,0,0,516,502
7,1,1,0,0,515,504
8,1,1,0,0,516,506
9,1,1,0,0,516,503
10,1,1,0,0,516,502
11,1,1,0,0,516,504
12,1,1,0,0,515,503
13,1,1,0,0,514,503
14,1,1,0,0,512,504
15,1,1,0,0,510,502
0,1,1,0,0,507,503
1,1,1,0,0,504,504
2,1,1,0,0,500,504
3,1,1,0,0,498,505
4,1,1,0,0,496,503
5,1,1,0,0,495,503
6,1,1,0,0,495,507
7,1,1,0,0,496,503
8,1,1,0,0,498,507
9,1,1,0,0,499,502
10,1,1,0,0,500,504
11,1,1,0,0,500,504
12,1,1,0,0,501,503
13,1,1,0,0,503,504
14,1,1,0,0,503,504
15,1,1,0,0,504,504
0,1,1,0,0,504,505
1,1,1,0,0,504,505
2,1,1,0,0,504,507
3,1,1,0,0,505,505
4,1,1,0,0,505,505
5,1,1,0,0,506,506
6,1,1,0,0,507,504
7,1,1,0,0,507,508
8,1,1,0,0,508,504
9,1,1,0,0,508,505
10,1,1,0,0,509,509
11,1,1,0,0,510,504
12,1,1,0,0,510,506
13,1,1,0,0,512,505
14,1,1,0,0,512,507
15,1,1,0,0,512,507
0,1,1,0,0,512,507
1,1,1,0,0,511,507
2,1,1,0,0,511,507
3,1,1,0,0,509,507
4,1,1,0,0,508,506
5,1,1,0,0,507,510
6,1,1,0,0,506,508
7,1,1,0,0,505,508
8,1,1,0,0,505,509
9,1,1,0,0,504,510
10,1,1,0,0,503,508
11,1,1,0,0,503,512
12,1,1,0,0,502,510
13,1,1,0,0,501,511
14,1,1,0,0,502,511
15,1,1,0,0,503,513
0,1,1,0,0,504,511
1,1,1,0,0,504,511
2,1,1,0,0,505,512
3,1,1,0,0,506,512
4,1,1,0,0,507,511
5,1,1,0,0,506,512
6,1,1,0,0,505,511
7,1,1,0,0,506,511
8,1,1,0,0,506,513
9,1,1,0,0,506,515
10,1,1,0,0,506,512
11,1,1,0,0,505,512
12,1,1,0,0,505,512
13,1,1,0,0,507,513
14,1,1,0,0,509,512
15,1,1,0,0,512,515
0,1,1,0,0,513,512
1,1,1,0,0,516,513
2,1,1,0,0,518,513
3,1,1,0,0,521,514
4,1,1,0,0,524,516
5,1,1,0,0,526,513
6,1,1,0,0,527,513
7,1,1,0,0,527,516
8,1,1,0,0,527,512
9,1,1,0,0,527,516
10,1,1,0,0,529,512
11,1,1,0,0,531,514
12,1,1,0,0,532,514
13,1,1,0,0,532,514
14,1,1,0,0,532,513
15,1,1,0,0,531,513
0,1,1,0,0,531,514
1,1,1,0,0,532,514
2,1,1,0,0,531,513
3,1,1,0,0,531,516
4,1,1,0,0,530,514
5,1,1,0,0,529,515
6,1,1,0,0,528,513
7,1,1,0,0,527,516
8,1,1,0,0,526,515
9,1,1,0,0,524,515
10,1,1,0,0,521,516
11,1,1,0,0,518,515
12,1,1,0,0,517,514
13,1,1,0,0,515,514
14,1,1,0,0,514,514
15,1,1,0,0,512,514
0,1,1,0,0,511,515
1,1,1,0,0,511,515
2,1,1,0,0,512,516
3,1,1,0,0,512,514
4,1,1,0,0,513,514
5,1,1,0,0,512,513
6,1,1,0,0,511,516
7,1,1,0,0,510,513
8,1,1,0,0,511,515
9,1,1,0,0,510,516
10,1,1,0,0,510,514
11,1,1,0,0,509,514
12,1,1,0,0,509,513
13,1,1,0,0,508,513
14,1,1,0,0,508,514
15,1,1,0,0,508,514
0,1,1,0,0,507,515
1,1,1,0,0,508,513
2,1,1,0,0,508,513
3,1,1,0,0,508,513
4,1,1,0,0,509,513
5,1,1,0,0,509,514
6,1,1,0,0,510,513
7,1,1,0,0,511,513
8,1,1,0,0,512,516
9,1,1,0,0,512,511
10,1,1,0,0,512,515
11,1,1,0,0,511,512
12,1,1,0,0,510,513
13,1,1,0,0,510,512
14,1,1,0,0,509,512
15,1,1,0,0,508,512
0,1,1,0,0,509,512
1,1,1,0,0,509,511
2,1,1,0,0,509,512
3,1,1,0,0,509,512
4,1,1,0,0,509,510
5,1,1,0,0,509,513
6,1,1,0,0,509,512
7,1,1,0,0,508,512
8,1,1,0,0,508,510
9,1,1,0,0,508,513
10,1,1,0,0,507,510
11,1,1,0,0,506,510
12,1,1,0,0,505,511
13,1,1,0,0,505,512
14,1,1,0,0,506,511
15,1,1,0,0,507,511
0,1,1,0,0,507,510
1,1,1,0,0,508,511
2,1,1,0,0,510,511
3,1,1,0,0,511,511
4,1,1,0,0,513,510
5,1,1,0,0,515,512
6,1,1,0,0,518,513
7,1,1,0,0,521,511
8,1,1,0,0,524,509
9,1,1,0,0,526,511
10,1,1,0,0,527,507
11,1,1,0,0,526,510
12,1,1,0,0,525,508
13,1,1,0,0,522,508
14,1,1,0,0,518,509
15,1,1,0,0,514,507
0,1,1,0,0,510,508
1,1,1,0,0,506,508
2,1,1,0,0,503,508
3,1,1,0,0,503,510
4,1,1,0,0,502,508
5,1,1,0,0,504,508
6,1,1,0,0,507,510
7,1,1,0,0,510,507
8,1,1,0,0,512,508
9,1,1,0,0,513,505
10,1,1,0,0,513,508
11,1,1,0,0,513,507
12,1,1,0,0,512,505
13,1,1,0,0,511,505
14,1,1,0,0,510,507
15,1,1,0,0,507,506
0,1,1,0,0,505,506
1,1,1,0,0,504,506
2,1,1,0,0,503,507
3,1,1,0,0,500,505
4,1,1,0,0,499,506
5,1,1,0,0,498,506
6,1,1,0,0,496,507
7,1,1,0,0,496,507
8,1,1,0,0,496,505
9,1,1,0,0,497,507
10,1,1,0,0,500,506
11,1,1,0,0,503,504
12,1,1,0,0,506,506
13,1,1,0,0,510,504
14,1,1,0,0,513,504
15,1,1,0,0,519,505
0,1,1,0,0,526,505
1,1,1,0,0,534,506
2,1,1,0,0,543,504
3,1,1,0,0,551,505
4,1,1,0,0,557,504
5,1,1,0,0,563,505
6,1,1,0,0,568,505
7,1,1,0,0,572,504
8,1,1,0,0,574,506
9,1,1,0,0,574,504
10,1,1,0,0,574,503
11,1,1,0,0,574,503
12,1,1,0,0,575,501
13,1,1,0,0,579,501
14,1,1,0,0,583,504
15,1,1,0,0,587,502
0,1,1,0,0,590,505
1,1,1,0,0,592,503
2,1,1,0,0,592,502
3,1,1,0,0,589,505
4,1,1,0,0,584,503
5,1,1,0,0,577,507
6,1,1,0,0,564,503
7,1,1,0,0,550,503
8,1,1,0,0,535,506
9,1,1,0,0,519,503
10,1,1,0,0,508,507
11,1,1,0,0,498,503
12,1,1,0,0,488,503
13,1,1,0,0,478,505
14,1,1,0,0,468,503
15,1,1,0,0,454,507
0,1,1,0,0,436,503
1,1,1,0,0,415,504
2,1,1,0,0,387,507
3,1,1,0,0,355,508
4,1,1,0,0,320,505
5,1,1,0,0,288,505
6,1,1,0,0,263,506
7,1,1,0,0,246,505
8,1,1,0,0,235,505
9,1,1,0,0,232,507
10,1,1,0,0,232,504
11,1,1,0,0,231,504
12,1,1,0,0,226,507
13,1,1,0,0,221,508
14,1,1,0,0,223,506
15,1,1,0,0,228,505
0,1,1,0,0,238,507
1,1,1,0,0,250,507
2,1,1,0,0,264,505
3,1,1,0,0,280,508
4,1,1,0,0,296,507
5,1,1,0,0,312,507
6,1,1,0,0,330,505
7,1,1,0,0,350,508
8,1,1,0,0,373,509
9,1,1,0,0,397,508
10,1,1,0,0,420,510
11,1,1,0,0,443,507
12,1,1,0,0,462,507
13,1,1,0,0,478,506
14,1,1,0,0,491,506
15,1,1,0,0,503,507
0,1,1,0,0,514,508
1,1,1,0,0,525,508
2,1,1,0,0,535,506
3,1,1,0,0,543,507
4,1,1,0,0,551,508
5,1,1,0,0,558,508
6,1,1,0,0,562,506
7,1,1,0,0,566,509
8,1,1,0,0,568,505
9,1,1,0,0,570,507
10,1,1,0,0,571,508
11,1,1,0,0,571,506
12,1,1,0,0,571,506
13,1,1,0,0,573,506
14,1,1,0,0,574,507
15,1,1,0,0,575,507
0,1,1,0,0,577,507
1,1,1,0,0,577,508
2,1,1,0,0,578,507
3,1,1,0,0,579,507
4,1,1,0,0,579,508
5,1,1,0,0,580,505
6,1,1,0,0,581,508
7,1,1,0,0,581,504
8,1,1,0,0,580,505
9,1,1,0,0,580,510
10,1,1,0,0,579,504
11,1,1,0,0,579,507
12,1,1,0,0,580,505
13,1,1,0,0,580,506
14,1,1,0,0,580,507
15,1,1,0,0,582,506
0,1,1,0,0,584,506
1,1,1,0,0,587,506
2,1,1,0,0,589,506
3,1,1,0,0,589,507
4,1,1,0,0,588,507
5,1,1,0,0,587,508
6,1,1,0,0,585,506
7,1,1,0,0,582,507
8,1,1,0,0,579,505
9,1,1,0,0,575,509
10,1,1,0,0,572,505
11,1,1,0,0,570,508
12,1,1,0,0,567,507
13,1,1,0,0,564,507
14,1,1,0,0,562,506
15,1,1,0,0,561,506
0,1,1,0,0,561,506
1,1,1,0,0,561,507
2,1,1,0,0,562,505
3,1,1,0,0,563,509
4,1,1,0,0,565,508
5,1,1,0,0,567,507
6,1,1,0,0,568,507
7,1,1,0,0,568,509
8,1,1,0,0,568,507
9,1,1,0,0,566,507
10,1,1,0,0,564,505
11,1,1,0,0,562,508
12,1,1,0,0,560,505
13,1,1,0,0,559,505
14,1,1,0,0,558,507
15,1,1,0,0,557,505
0,1,1,0,0,557,505
1,1,1,0,0,556,506
2,1,1,0,0,556,506
3,1,1,0,0,557,507
4,1,1,0,0,559,505
5,1,1,0,0,559,506
6,1,1,0,0,560,508
7,1,1,0,0,560,506
8,1,1,0,0,561,506
9,1,1,0,0,561,504
10,1,1,0,0,562,507
11,1,1,0,0,561,502
12,1,1,0,0,561,506
13,1,1,0,0,560,506
14,1,1,0,0,560,504
15,1,1,0,0,561,505
0,1,1,0,0,560,505
1,1,1,0,0,560,506
2,1,1,0,0,560,507
3,1,1,0,0,560,505
4,1,1,0,0,561,505
5,1,1,0,0,560,504
6,1,1,0,0,560,508
7,1,1,0,0,560,506
8,1,1,0,0,560,508
9,1,1,0,0,560,507
10,1,1,0,0,560,504
11,1,1,0,0,559,508
12,1,1,0,0,558,505
13,1,1,0,0,559,508
14,1,1,0,0,559,506
15,1,1,0,0,559,507
0,1,1,0,0,558,507
1,1,1,0,0,558,506
2,1,1,0,0,559,506
3,1,1,0,0,559,507
4,1,1,0,0,560,508
5,1,1,0,0,562,507
6,1,1,0,0,563,507
7,1,1,0,0,564,506
8,1,1,0,0,566,506
9,1,1,0,0,568,509
10,1,1,0,0,571,508
11,1,1,0,0,572,507
12,1,1,0,0,572,506
13,1,1,0,0,570,507
14,1,1,0,0,567,507
15,1,1,0,0,564,507
0,1,1,0,0,561,508
1,1,1,0,0,560,506
2,1,1,0,0,558,506
3,1,1,0,0,556,508
4,1,1,0,0,555,510
5,1,1,0,0,552,507
6,1,1,0,0,551,509
7,1,1,0,0,550,508
8,1,1,0,0,548,508
9,1,1,0,0,546,507
10,1,1,0,0,543,506
11,1,1,0,0,542,505
12,1,1,0,0,543,506
13,1,1,0,0,544,507
14,1,1,0,0,545,507
15,1,1,0,0,546,506
0,1,1,0,0,548,506
1,1,1,0,0,550,506
2,1,1,0,0,552,507
3,1,1,0,0,555,508
4,1,1,0,0,558,506
5,1,1,0,0,560,507
6,1,1,0,0,562,509
7,1,1,0,0,564,505
8,1,1,0,0,566,508
9,1,1,0,0,568,505
10,1,1,0,0,568,504
11,1,1,0,0,568,508
12,1,1,0,0,568,506
13,1,1,0,0,566,505
14,1,1,0,0,565,505
15,1,1,0,0,565,505
0,1,1,0,0,565,506
1,1,1,0,0,565,506
2,1,1,0,0,565,507
3,1,1,0,0,566,507
4,1,1,0,0,567,506
5,1,1,0,0,567,505
6,1,1,0,0,568,504
7,1,1,0,0,570,508
8,1,1,0,0,572,504
9,1,1,0,0,573,509
10,1,1,0,0,575,508
11,1,1,0,0,576,505
12,1,1,0,0,578,506
13,1,1,0,0,577,505
14,1,1,0,0,576,505
15,1,1,0,0,576,506
0,1,1,0,0,575,506
1,1,1,0,0,574,505
2,1,1,0,0,573,507
3,1,1,0,0,573,505
4,1,1,0,0,572,506
5,1,1,0,0,571,507
6,1,1,0,0,572,506
7,1,1,0,0,573,507
8,1,1,0,0,575,505
9,1,1,0,0,577,505
10,1,1,0,0,579,510
11,1,1,0,0,581,504
12,1,1,0,0,585,507
13,1,1,0,0,588,505
14,1,1,0,0,588,507
15,1,1,0,0,588,507
0,1,1,0,0,586,506
1,1,1,0,0,583,506
2,1,1,0,0,580,507
3,1,1,0,0,577,506
4,1,1,0,0,573,505
5,1,1,0,0,570,509
6,1,1,0,0,568,506
7,1,1,0,0,565,510
8,1,1,0,0,562,509
9,1,1,0,0,560,506
10,1,1,0,0,558,507
11,1,1,0,0,557,505
12,1,1,0,0,556,506
13,1,1,0,0,556,506
14,1,1,0,0,556,507
15,1,1,0,0,556,507
0,1,1,0,0,556,508
1,1,1,0,0,555,506
2,1,1,0,0,555,507
3,1,1,0,0,552,507
4,1,1,0,0,551,508
5,1,1,0,0,549,508
6,1,1,0,0,547,506
7,1,1,0,0,544,506
8,1,1,0,0,541,510
9,1,1,0,0,538,505
10,1,1,0,0,535,510
11,1,1,0,0,531,506
12,1,1,0,0,527,508
13,1,1,0,0,524,508
14,1,1,0,0,521,510
15,1,1,0,0,519,507
0,1,1,0,0,519,507
1,1,1,0,0,519,508
2,1,1,0,0,521,506
3,1,1,0,0,522,510
4,1,1,0,0,523,508
5,1,1,0,0,521,506
6,1,1,0,0,519,507
7,1,1,0,0,515,509
8,1,1,0,0,510,512
9,1,1,0,0,504,508
10,1,1,0,0,497,507
11,1,1,0,0,491,510
12,1,1,0,0,485,508
13,1,1,0,0,481,508
14,1,1,0,0,476,509
15,1,1,0,0,472,508
0,1,1,0,0,469,508
1,1,1,0,0,467,509
2,1,1,0,0,466,510
3,1,1,0,0,465,510
4,1,1,0,0,465,508
5,1,1,0,0,466,508
6,1,1,0,0,468,511
7,1,1,0,0,471,508
8,1,1,0,0,473,511
9,1,1,0,0,476,507
10,1,1,0,0,479,509
11,1,1,0,0,480,510
12,1,1,0,0,479,508
13,1,1,0,0,477,509
14,1,1,0,0,475,508
15,1,1,0,0,471,510
0,1,1,0,0,465,510
1,1,1,0,0,460,510
2,1,1,0,0,455,511
3,1,1,0,0,451,511
4,1,1,0,0,450,511
5,1,1,0,0,448,511
6,1,1,0,0,447,510
7,1,1,0,0,446,513
8,1,1,0,0,445,510
9,1,1,0,0,446,510
10,1,1,0,0,449,515
11,1,1,0,0,453,510
12,1,1,0,0,456,512
13,1,1,0,0,459,511
14,1,1,0,0,461,512
15,1,1,0,0,460,513
0,1,1,0,0,459,512
1,1,1,0,0,457,513
2,1,1,0,0,455,513
3,1,1,0,0,453,513
4,1,1,0,0,451,512
5,1,1,0,0,449,516
6,1,1,0,0,447,515
7,1,1,0,0,446,515
8,1,1,0,0,444,515
9,1,1,0,0,444,517
10,1,1,0,0,445,515
11,1,1,0,0,445,515
12,1,1,0,0,446,515
13,1,1,0,0,448,515
14,1,1,0,0,449,515
15,1,1,0,0,452,516
0,1,1,0,0,454,517
1,1,1,0,0,455,516
2,1,1,0,0,456,516
3,1,1,0,0,459,517
4,1,1,0,0,462,518
5,1,1,0,0,465,519
6,1,1,0,0,467,518
7,1,1,0,0,469,519
8,1,1,0,0,469,518
9,1,1,0,0,470,517
10,1,1,0,0,469,518
11,1,1,0,0,470,515
12,1,1,0,0,471,516
13,1,1,0,0,471,517
14,1,1,0,0,471,515
15,1,1,0,0,470,519
0,1,1,0,0,468,518
1,1,1,0,0,467,518
2,1,1,0,0,466,519
3,1,1,0,0,464,519
4,1,1,0,0,463,519
5,1,1,0,0,463,519
6,1,1,0,0,463,521
7,1,1,0,0,463,520
8,1,1,0,0,464,519
9,1,1,0,0,465,518
10,1,1,0,0,466,518
11,1,1,0,0,467,519
12,1,1,0,0,468,518
13,1,1,0,0,469,518
14,1,1,0,0,470,519
15,1,1,0,0,471,519
0,1,1,0,0,472,519
1,1,1,0,0,474,519
2,1,1,0,0,475,519
3,1,1,0,0,476,521
4,1,1,0,0,476,520
5,1,1,0,0,478,520
6,1,1,0,0,480,521
7,1,1,0,0,482,520
8,1,1,0,0,484,518
9,1,1,0,0,486,519
10,1,1,0,0,487,522
11,1,1,0,0,488,520
12,1,1,0,0,488,519
13,1,1,0,0,488,519
14,1,1,0,0,488,520
15,1,1,0,0,488,519
0,1,1,0,0,488,520
1,1,1,0,0,487,520
2,1,1,0,0,484,520
3,1,1,0,0,483,520
4,1,1,0,0,482,520
5,1,1,0,0,480,518
6,1,1,0,0,480,521
7,1,1,0,0,480,520
8,1,1,0,0,482,520
9,1,1,0,0,483,523
10,1,1,0,0,484,518
11,1,1,0,0,484,522
12,1,1,0,0,484,519
13,1,1,0,0,484,521
14,1,1,0,0,483,521
15,1,1,0,0,483,519
0,1,1,0,0,483,524
1,1,1,0,0,483,520
2,1,1,0,0,483,519
3,1,1,0,0,482,521
4,1,1,0,0,483,519
5,1,1,0,0,483,522
6,1,1,0,0,484,520
7,1,1,0,0,486,520
8,1,1,0,0,488,523
9,1,1,0,0,490,518
10,1,1,0,0,491,522
11,1,1,0,0,492,519
12,1,1,0,0,493,519
13,1,1,0,0,494,519
14,1,1,0,0,495,519
15,1,1,0,0,495,518
0,1,1,0,0,494,518
1,1,1,0,0,495,518
2,1,1,0,0,496,518
3,1,1,0,0,496,519
4,1,1,0,0,495,516
5,1,1,0,0,495,520
6,1,1,0,0,494,519
7,1,1,0,0,492,519
8,1,1,0,0,492,516
9,1,1,0,0,493,519
10,1,1,0,0,493,516
11,1,1,0,0,494,516
12,1,1,0,0,496,517
13,1,1,0,0,497,518
14,1,1,0,0,499,516
15,1,1,0,0,499,516
0,1,1,0,0,500,517
1,1,1,0,0,502,516
2,1,1,0,0,503,514
3,1,1,0,0,504,518
4,1,1,0,0,507,516
5,1,1,0,0,510,514
6,1,1,0,0,512,514
7,1,1,0,0,514,516
8,1,1,0,0,515,518
9,1,1,0,0,513,515
10,1,1,0,0,511,514
11,1,1,0,0,508,516
12,1,1,0,0,504,514
13,1,1,0,0,501,513
14,1,1,0,0,498,514
15,1,1,0,0,497,512
0,1,1,0,0,495,513
1,1,1,0,0,494,513
2,1,1,0,0,491,513
3,1,1,0,0,491,513
4,1,1,0,0,493,511
5,1,1,0,0,495,511
6,1,1,0,0,496,515
7,1,1,0,0,498,510
8,1,1,0,0,499,513
9,1,1,0,0,501,509
10,1,1,0,0,504,510
11,1,1,0,0,504,511
12,1,1,0,0,504,510
13,1,1,0,0,504,509
14,1,1,0,0,504,508
15,1,1,0,0,503,510
0,1,1,0,0,503,509
1,1,1,0,0,503,509
2,1,1,0,0,504,510
3,1,1,0,0,505,509
4,1,1,0,0,507,509
5,1,1,0,0,509,509
6,1,1,0,0,510,507
7,1,1,0,0,510,510
8,1,1,0,0,511,507
9,1,1,0,0,511,507
10,1,1,0,0,511,510
11,1,1,0,0,511,505
12,1,1,0,0,511,507
13,1,1,0,0,509,506
14,1,1,0,0,508,506
15,1,1,0,0,507,507
0,1,1,0,0,505,507
1,1,1,0,0,504,507
2,1,1,0,0,501,506
3,1,1,0,0,498,505
4,1,1,0,0,494,504
5,1,1,0,0,492,508
6,1,1,0,0,492,506
7,1,1,0,0,492,505
8,1,1,0,0,492,504
9,1,1,0,0,493,508
10,1,1,0,0,496,507
11,1,1,0,0,498,504
12,1,1,0,0,500,504
13,1,1,0,0,503,505
14,1,1,0,0,504,505
15,1,1,0,0,507,504
0,1,1,0,0,508,505
1,1,1,0,0,509,503
2,1,1,0,0,509,503
3,1,1,0,0,510,505
4,1,1,0,0,510,507
5,1,1,0,0,508,504
6,1,1,0,0,506,507
7,1,1,0,0,504,504
8,1,1,0,0,502,505
9,1,1,0,0,501,504
10,1,1,0,0,500,503
11,1,1,0,0,501,503
12,1,1,0,0,502,503
13,1,1,0,0,502,503
14,1,1,0,0,503,504
15,1,1,0,0,503,503
0,1,1,0,0,504,504
1,1,1,0,0,505,503
2,1,1,0,0,505,503
3,1,1,0,0,507,504
4,1,1,0,0,508,502
5,1,1,0,0,509,503
6,1,1,0,0,511,505
7,1,1,0,0,512,501
8,1,1,0,0,512,505
9,1,1,0,0,513,501
10,1,1,0,0,513,502
11,1,1,0,0,513,504
12,1,1,0,0,514,502
13,1,1,0,0,514,502
14,1,1,0,0,515,501
15,1,1,0,0,515,502
0,1,1,0,0,516,502
1,1,1,0,0,516,502
2,1,1,0,0,518,503
3,1,1,0,0,519,502
4,1,1,0,0,519,503
5,1,1,0,0,519,502
6,1,1,0,0,519,500
7,1,1,0,0,519,504
8,1,1,0,0,519,501
9,1,1,0,0,520,505
10,1,1,0,0,521,504
11,1,1,0,0,520,501
12,1,1,0,0,520,502
13,1,1,0,0,519,502
14,1,1,0,0,518,502
15,1,1,0,0,516,502
0,1,1,0,0,514,503
1,1,1,0,0,512,503
2,1,1,0,0,510,503
3,1,1,0,0,509,502
4,1,1,0,0,509,503
5,1,1,0,0,508,503
6,1,1,0,0,508,504
7,1,1,0,0,507,504
8,1,1,0,0,505,502
9,1,1,0,0,503,503
10,1,1,0,0,502,507
11,1,1,0,0,502,502
12,1,1,0,0,502,504
13,1,1,0,0,503,504
14,1,1,0,0,504,504
15,1,1,0,0,504,504
0,1,1,0,0,504,503
1,1,1,0,0,505,503
2,1,1,0,0,506,504
3,1,1,0,0,506,504
4,1,1,0,0,507,502
5,1,1,0,0,506,507
6,1,1,0,0,505,504
7,1,1,0,0,504,508
8,1,1,0,0,503,506
9,1,1,0,0,503,503
10,1,1,0,0,502,505
11,1,1,0,0,502,504
12,1,1,0,0,504,504
13,1,1,0,0,506,505
14,1,1,0,0,507,505
15,1,1,0,0,508,505
0,1,1,0,0,508,506
1,1,1,0,0,509,504
2,1,1,0,0,509,505
3,1,1,0,0,509,506
4,1,1,0,0,509,507
5,1,1,0,0,509,507
6,1,1,0,0,509,507
7,1,1,0,0,508,507
8,1,1,0,0,507,509
9,1,1,0,0,507,504
10,1,1,0,0,506,508
11,1,1,0,0,506,506
12,1,1,0,0,506,506
13,1,1,0,0,507,507
14,1,1,0,0,508,510
15,1,1,0,0,508,507
0,1,1,0,0,510,507
1,1,1,0,0,511,508
2,1,1,0,0,513,506
3,1,1,0,0,515,510
4,1,1,0,0,516,508
5,1,1,0,0,519,507
6,1,1,0,0,521,508
7,1,1,0,0,524,510
8,1,1,0,0,529,512
9,1,1,0,0,534,509
10,1,1,0,0,537,508
11,1,1,0,0,539,510
12,1,1,0,0,541,509
13,1,1,0,0,543,508
14,1,1,0,0,543,509
15,1,1,0,0,543,508
0,1,1,0,0,544,509
1,1,1,0,0,543,509
2,1,1,0,0,542,510
3,1,1,0,0,541,511
4,1,1,0,0,538,509
5,1,1,0,0,536,509
6,1,1,0,0,534,512
7,1,1,0,0,532,508
8,1,1,0,0,530,512
9,1,1,0,0,527,508
10,1,1,0,0,524,510
11,1,1,0,0,523,511
12,1,1,0,0,523,510
13,1,1,0,0,523,509
14,1,1,0,0,522,509
15,1,1,0,0,520,511
0,1,1,0,0,519,510
1,1,1,0,0,519,511
2,1,1,0,0,517,511
3,1,1,0,0,516,511
4,1,1,0,0,514,511
5,1,1,0,0,513,512
6,1,1,0,0,513,510
7,1,1,0,0,512,513
8,1,1,0,0,512,511
9,1,1,0,0,512,511
10,1,1,0,0,511,514
11,1,1,0,0,510,510
12,1,1,0,0,510,512
13,1,1,0,0,510,511
14,1,1,0,0,509,512
15,1,1,0,0,509,512
0,1,1,0,0,510,511
1,1,1,0,0,510,511
2,1,1,0,0,509,512
3,1,1,0,0,509,512
4,1,1,0,0,509,511
5,1,1,0,0,509,515
6,1,1,0,0,510,512
7,1,1,0,0,508,512
8,1,1,0,0,507,511
9,1,1,0,0,506,515
10,1,1,0,0,506,515
11,1,1,0,0,506,512
12,1,1,0,0,506,512
13,1,1,0,0,506,512
14,1,1,0,0,507,513
15,1,1,0,0,507,512
0,1,1,0,0,508,513
1,1,1,0,0,509,512
2,1,1,0,0,510,512
3,1,1,0,0,511,514
4,1,1,0,0,511,516
5,1,1,0,0,510,513
6,1,1,0,0,510,515
7,1,1,0,0,510,513
8,1,1,0,0,510,514
9,1,1,0,0,510,513
10,1,1,0,0,510,512
11,1,1,0,0,510,512
12,1,1,0,0,509,512
13,1,1,0,0,510,513
14,1,1,0,0,511,513
15,1,1,0,0,512,512
0,1,1,0,0,514,513
1,1,1,0,0,515,513
2,1,1,0,0,517,513
3,1,1,0,0,519,513
4,1,1,0,0,522,512
5,1,1,0,0,524,512
6,1,1,0,0,524,515
7,1,1,0,0,524,511
8,1,1,0,0,522,515
9,1,1,0,0,519,511
10,1,1,0,0,516,511
11,1,1,0,0,514,513
12,1,1,0,0,512,512
13,1,1,0,0,509,511
14,1,1,0,0,508,510
15,1,1,0,0,508,512
0,1,1,0,0,509,512
1,1,1,0,0,512,512
2,1,1,0,0,515,510
3,1,1,0,0,518,513
4,1,1,0,0,520,511
5,1,1,0,0,522,512
6,1,1,0,0,522,512
7,1,1,0,0,521,513
8,1,1,0,0,518,511
9,1,1,0,0,514,511
10,1,1,0,0,512,513
11,1,1,0,0,509,511
12,1,1,0,0,505,510
13,1,1,0,0,503,510
14,1,1,0,0,500,510
15,1,1,0,0,499,510
0,1,1,0,0,497,510
1,1,1,0,0,496,510
2,1,1,0,0,495,510
3,1,1,0,0,495,510
4,1,1,0,0,495,510
5,1,1,0,0,496,510
6,1,1,0,0,498,510
7,1,1,0,0,500,510
8,1,1,0,0,502,509
9,1,1,0,0,504,511
10,1,1,0,0,506,509
11,1,1,0,0,508,508
12,1,1,0,0,509,508
13,1,1,0,0,511,509
14,1,1,0,0,512,508
15,1,1,0,0,513,508
0,1,1,0,0,516,507
1,1,1,0,0,518,510
2,1,1,0,0,520,509
3,1,1,0,0,523,509
4,1,1,0,0,527,509
5,1,1,0,0,530,510
6,1,1,0,0,536,509
7,1,1,0,0,544,510
8,1,1,0,0,551,511
9,1,1,0,0,558,510
10,1,1,0,0,563,508
11,1,1,0,0,569,507
12,1,1,0,0,574,507
13,1,1,0,0,577,507
14,1,1,0,0,580,508
15,1,1,0,0,580,508
0,1,1,0,0,579,508
1,1,1,0,0,577,508
2,1,1,0,0,575,508
3,1,1,0,0,576,508
4,1,1,0,0,577,506
5,1,1,0,0,578,509
6,1,1,0,0,579,507
7,1,1,0,0,578,506
8,1,1,0,0,576,510
9,1,1,0,0,572,505
10,1,1,0,0,567,508
11,1,1,0,0,560,506
12,1,1,0,0,552,505
13,1,1,0,0,543,508
14,1,1,0,0,534,506
15,1,1,0,0,524,509
0,1,1,0,0,514,507
1,1,1,0,0,505,507
2,1,1,0,0,497,509
3,1,1,0,0,487,507
4,1,1,0,0,471,510
5,1,1,0,0,450,509
6,1,1,0,0,427,508
7,1,1,0,0,401,509
8,1,1,0,0,371,509
9,1,1,0,0,337,507
10,1,1,0,0,304,507
11,1,1,0,0,277,508
12,1,1,0,0,255,507
13,1,1,0,0,242,507
14,1,1,0,0,230,507
15,1,1,0,0,224,507
0,1,1,0,0,220,507
1,1,1,0,0,216,507
2,1,1,0,0,208,507
3,1,1,0,0,205,508
4,1,1,0,0,207,508
5,1,1,0,0,215,507
6,1,1,0,0,227,508
7,1,1,0,0,241,507
8,1,1,0,0,258,507
9,1,1,0,0,278,505
10,1,1,0,0,300,508
11,1,1,0,0,320,507
12,1,1,0,0,339,505
13,1,1,0,0,359,505
14,1,1,0,0,377,503
15,1,1,0,0,397,504
0,1,1,0,0,416,506
1,1,1,0,0,434,504
2,1,1,0,0,452,508
3,1,1,0,0,467,505
4,1,1,0,0,480,505
5,1,1,0,0,490,507
6,1,1,0,0,500,507
7,1,1,0,0,512,507
8,1,1,0,0,524,504
9,1,1,0,0,535,505
10,1,1,0,0,544,509
11,1,1,0,0,553,504
12,1,1,0,0,560,508
13,1,1,0,0,567,504
14,1,1,0,0,572,508
15,1,1,0,0,574,504
0,1,1,0,0,576,508
1,1,1,0,0,577,506
2,1,1,0,0,579,505
3,1,1,0,0,582,507
4,1,1,0,0,583,507
5,1,1,0,0,585,506
6,1,1,0,0,586,505
7,1,1,0,0,587,507
8,1,1,0,0,587,507
9,1,1,0,0,588,505
10,1,1,0,0,587,509
11,1,1,0,0,586,505
12,1,1,0,0,585,506
13,1,1,0,0,583,506
14,1,1,0,0,581,507
15,1,1,0,0,580,506
0,1,1,0,0,579,506
1,1,1,0,0,578,508
2,1,1,0,0,578,507
3,1,1,0,0,578,505
4,1,1,0,0,579,510
5,1,1,0,0,578,507
6,1,1,0,0,577,510
7,1,1,0,0,577,508
8,1,1,0,0,577,505
9,1,1,0,0,576,507
10,1,1,0,0,574,506
11,1,1,0,0,574,505
12,1,1,0,0,576,507
13,1,1,0,0,579,507
14,1,1,0,0,583,507
15,1,1,0,0,587,507
0,1,1,0,0,588,506
1,1,1,0,0,588,507
2,1,1,0,0,587,507
3,1,1,0,0,585,507
4,1,1,0,0,584,508
5,1,1,0,0,582,507
6,1,1,0,0,579,506
7,1,1,0,0,575,509
8,1,1,0,0,572,506
9,1,1,0,0,570,510
10,1,1,0,0,567,506
11,1,1,0,0,564,507
12,1,1,0,0,563,508
13,1,1,0,0,562,507
14,1,1,0,0,561,507
15,1,1,0,0,560,506
0,1,1,0,0,561,508
1,1,1,0,0,562,507
2,1,1,0,0,565,505
3,1,1,0,0,568,509
4,1,1,0,0,569,507
5,1,1,0,0,570,508
6,1,1,0,0,571,507
7,1,1,0,0,572,509
8,1,1,0,0,573,508
9,1,1,0,0,574,508
10,1,1,0,0,573,510
11,1,1,0,0,572,508
12,1,1,0,0,569,507
13,1,1,0,0,568,507
14,1,1,0,0,565,508
15,1,1,0,0,563,507
0,1,1,0,0,561,507
1,1,1,0,0,560,508
2,1,1,0,0,559,507
3,1,1,0,0,558,508
4,1,1,0,0,557,508
5,1,1,0,0,557,505
6,1,1,0,0,556,510
7,1,1,0,0,556,505
8,1,1,0,0,556,508
9,1,1,0,0,557,509
10,1,1,0,0,558,507
11,1,1,0,0,559,507
12,1,1,0,0,560,507
13,1,1,0,0,563,507
14,1,1,0,0,564,507
15,1,1,0,0,566,508
0,1,1,0,0,567,508
1,1,1,0,0,567,507
2,1,1,0,0,566,508
3,1,1,0,0,567,508
4,1,1,0,0,567,507
5,1,1,0,0,566,508
6,1,1,0,0,564,507
7,1,1,0,0,563,508
8,1,1,0,0,562,510
9,1,1,0,0,560,506
10,1,1,0,0,559,509
11,1,1,0,0,559,507
12,1,1,0,0,559,509
13,1,1,0,0,558,507
14,1,1,0,0,558,507
15,1,1,0,0,559,507
0,1,1,0,0,559,507
1,1,1,0,0,560,507
2,1,1,0,0,560,507
3,1,1,0,0,562,506
4,1,1,0,0,563,510
5,1,1,0,0,563,507
6,1,1,0,0,564,507
7,1,1,0,0,563,508
8,1,1,0,0,563,508
9,1,1,0,0,563,505
10,1,1,0,0,562,510
11,1,1,0,0,561,505
12,1,1,0,0,561,508
13,1,1,0,0,560,508
14,1,1,0,0,561,508
15,1,1,0,0,563,507
0,1,1,0,0,566,507
1,1,1,0,0,568,507
2,1,1,0,0,570,507
3,1,1,0,0,572,506
4,1,1,0,0,572,509
5,1,1,0,0,571,507
6,1,1,0,0,570,508
7,1,1,0,0,569,507
8,1,1,0,0,568,509
9,1,1,0,0,565,508
10,1,1,0,0,563,507
11,1,1,0,0,561,509
12,1,1,0,0,559,508
13,1,1,0,0,557,507
14,1,1,0,0,556,507
15,1,1,0,0,556,508
0,1,1,0,0,557,508
1,1,1,0,0,559,508
2,1,1,0,0,560,508
3,1,1,0,0,561,508
4,1,1,0,0,563,509
5,1,1,0,0,564,507
6,1,1,0,0,566,506
7,1,1,0,0,567,510
8,1,1,0,0,568,507
9,1,1,0,0,569,510
10,1,1,0,0,571,508
11,1,1,0,0,572,508
12,1,1,0,0,574,508
13,1,1,0,0,575,507
14,1,1,0,0,576,507
15,1,1,0,0,577,507
0,1,1,0,0,578,508
1,1,1,0,0,577,508
2,1,1,0,0,577,506
3,1,1,0,0,577,507
4,1,1,0,0,577,508
5,1,1,0,0,576,508
6,1,1,0,0,575,506
7,1,1,0,0,575,509
8,1,1,0,0,574,507
9,1,1,0,0,574,508
10,1,1,0,0,574,508
11,1,1,0,0,576,507
12,1,1,0,0,578,507
13,1,1,0,0,579,506
14,1,1,0,0,580,508
15,1,1,0,0,582,508
0,1,1,0,0,582,507
1,1,1,0,0,581,508
2,1,1,0,0,580,508
3,1,1,0,0,580,507
4,1,1,0,0,580,508
5,1,1,0,0,580,505
6,1,1,0,0,580,509
7,1,1,0,0,581,506
8,1,1,0,0,580,506
9,1,1,0,0,579,510
10,1,1,0,0,579,510
11,1,1,0,0,580,506
12,1,1,0,0,582,507
13,1,1,0,0,584,507
14,1,1,0,0,585,508
15,1,1,0,0,585,507
0,1,1,0,0,584,507
1,1,1,0,0,583,507
2,1,1,0,0,581,506
3,1,1,0,0,579,509
4,1,1,0,0,576,510
5,1,1,0,0,573,507
6,1,1,0,0,571,510
7,1,1,0,0,568,508
8,1,1,0,0,565,508
9,1,1,0,0,563,508
10,1,1,0,0,559,507
11,1,1,0,0,557,506
12,1,1,0,0,555,506
13,1,1,0,0,552,507
14,1,1,0,0,549,507
15,1,1,0,0,547,506
0,1,1,0,0,544,507
1,1,1,0,0,541,507
2,1,1,0,0,538,507
3,1,1,0,0,536,508
4,1,1,0,0,533,506
5,1,1,0,0,531,507
6,1,1,0,0,528,509
7,1,1,0,0,526,505
8,1,1,0,0,523,509
9,1,1,0,0,520,505
10,1,1,0,0,518,505
11,1,1,0,0,514,507
12,1,1,0,0,511,506
13,1,1,0,0,508,506
14,1,1,0,0,505,505
15,1,1,0,0,500,507
0,1,1,0,0,495,506
1,1,1,0,0,491,507
2,1,1,0,0,487,507
3,1,1,0,0,484,506
4,1,1,0,0,481,508
5,1,1,0,0,480,507
6,1,1,0,0,478,505
7,1,1,0,0,476,509
8,1,1,0,0,474,506
9,1,1,0,0,472,510
10,1,1,0,0,470,508
11,1,1,0,0,468,505
12,1,1,0,0,465,507
13,1,1,0,0,462,506
14,1,1,0,0,460,506
15,1,1,0,0,457,507
0,1,1,0,0,455,508
1,1,1,0,0,454,508
2,1,1,0,0,453,508
3,1,1,0,0,452,507
4,1,1,0,0,452,508
5,1,1,0,0,451,509
6,1,1,0,0,449,509
7,1,1,0,0,448,510
8,1,1,0,0,449,508
9,1,1,0,0,450,508
10,1,1,0,0,451,513
11,1,1,0,0,451,508
12,1,1,0,0,452,510
13,1,1,0,0,454,509
14,1,1,0,0,454,510
15,1,1,0,0,455,510
0,1,1,0,0,455,510
1,1,1,0,0,455,510
2,1,1,0,0,455,511
3,1,1,0,0,454,511
4,1,1,0,0,453,509
5,1,1,0,0,452,514
6,1,1,0,0,451,512
7,1,1,0,0,451,515
8,1,1,0,0,451,513
9,1,1,0,0,450,510
10,1,1,0,0,450,512
11,1,1,0,0,452,512
12,1,1,0,0,455,511
13,1,1,0,0,458,512
14,1,1,0,0,460,513
15,1,1,0,0,462,512
0,1,1,0,0,464,513
1,1,1,0,0,466,512
2,1,1,0,0,467,513
3,1,1,0,0,466,513
4,1,1,0,0,464,514
5,1,1,0,0,463,514
6,1,1,0,0,462,515
7,1,1,0,0,461,515
8,1,1,0,0,461,516
9,1,1,0,0,460,515
10,1,1,0,0,460,514
11,1,1,0,0,460,514
12,1,1,0,0,460,514
13,1,1,0,0,460,515
14,1,1,0,0,460,515
15,1,1,0,0,461,514
0,1,1,0,0,461,516
1,1,1,0,0,463,515
2,1,1,0,0,463,513
3,1,1,0,0,465,518
4,1,1,0,0,467,516
5,1,1,0,0,468,517
6,1,1,0,0,468,519
7,1,1,0,0,468,517
8,1,1,0,0,468,516
9,1,1,0,0,468,515
10,1,1,0,0,468,515
11,1,1,0,0,468,516
12,1,1,0,0,467,515
13,1,1,0,0,466,516
14,1,1,0,0,464,515
15,1,1,0,0,463,516
0,1,1,0,0,462,516
1,1,1,0,0,462,516
2,1,1,0,0,462,517
3,1,1,0,0,462,517
4,1,1,0,0,462,518
5,1,1,0,0,463,517
6,1,1,0,0,463,519
7,1,1,0,0,465,518
8,1,1,0,0,467,516
9,1,1,0,0,468,516
10,1,1,0,0,470,518
11,1,1,0,0,472,517
12,1,1,0,0,473,513
13,1,1,0,0,474,518
14,1,1,0,0,475,516
15,1,1,0,0,476,516
0,1,1,0,0,476,517
1,1,1,0,0,477,517
2,1,1,0,0,476,517
3,1,1,0,0,475,518
4,1,1,0,0,475,518
5,1,1,0,0,474,518
6,1,1,0,0,474,518
7,1,1,0,0,474,517
8,1,1,0,0,474,517
9,1,1,0,0,475,519
10,1,1,0,0,476,518
11,1,1,0,0,478,517
12,1,1,0,0,480,516
13,1,1,0,0,481,518
14,1,1,0,0,481,516
15,1,1,0,0,483,517
0,1,1,0,0,485,518
1,1,1,0,0,487,517
2,1,1,0,0,487,518
3,1,1,0,0,485,517
4,1,1,0,0,486,518
5,1,1,0,0,486,516
6,1,1,0,0,487,519
7,1,1,0,0,487,516
8,1,1,0,0,487,516
9,1,1,0,0,487,521
10,1,1,0,0,487,516
11,1,1,0,0,487,519
12,1,1,0,0,488,518
13,1,1,0,0,488,517
14,1,1,0,0,488,519
15,1,1,0,0,489,516
0,1,1,0,0,490,520
1,1,1,0,0,490,518
2,1,1,0,0,491,518
3,1,1,0,0,491,519
4,1,1,0,0,492,517
5,1,1,0,0,493,520
6,1,1,0,0,493,518
7,1,1,0,0,493,518
8,1,1,0,0,493,519
9,1,1,0,0,492,518
10,1,1,0,0,490,521
11,1,1,0,0,489,518
12,1,1,0,0,488,517
13,1,1,0,0,488,519
14,1,1,0,0,487,517
15,1,1,0,0,487,518
0,1,1,0,0,488,518
1,1,1,0,0,490,519
2,1,1,0,0,492,518
3,1,1,0,0,493,518
4,1,1,0,0,494,517
5,1,1,0,0,495,516
6,1,1,0,0,496,517
7,1,1,0,0,497,518
8,1,1,0,0,497,518
9,1,1,0,0,498,516
10,1,1,0,0,497,519
11,1,1,0,0,497,517
12,1,1,0,0,496,516
13,1,1,0,0,495,516
14,1,1,0,0,494,516
15,1,1,0,0,494,515
0,1,1,0,0,494,516
1,1,1,0,0,494,516
2,1,1,0,0,494,516
3,1,1,0,0,495,515
4,1,1,0,0,496,515
5,1,1,0,0,496,515
6,1,1,0,0,498,516
7,1,1,0,0,501,513
8,1,1,0,0,504,517
9,1,1,0,0,505,514
10,1,1,0,0,507,514
11,1,1,0,0,507,515
12,1,1,0,0,507,513
13,1,1,0,0,507,513
14,1,1,0,0,507,513
15,1,1,0,0,506,513
0,1,1,0,0,505,513
1,1,1,0,0,502,513
2,1,1,0,0,499,513
3,1,1,0,0,497,513
4,1,1,0,0,495,512
5,1,1,0,0,494,512
6,1,1,0,0,494,510
7,1,1,0,0,494,513
8,1,1,0,0,496,510
9,1,1,0,0,498,510
10,1,1,0,0,500,514
11,1,1,0,0,502,513
12,1,1,0,0,503,510
13,1,1,0,0,504,509
14,1,1,0,0,505,510
15,1,1,0,0,506,511
0,1,1,0,0,505,510
1,1,1,0,0,505,510
2,1,1,0,0,505,510
3,1,1,0,0,504,509
4,1,1,0,0,502,508
5,1,1,0,0,501,512
6,1,1,0,0,500,508
7,1,1,0,0,499,511
8,1,1,0,0,499,509
9,1,1,0,0,498,505
10,1,1,0,0,499,507
11,1,1,0,0,500,507
12,1,1,0,0,501,506
13,1,1,0,0,502,507
14,1,1,0,0,504,507
15,1,1,0,0,508,507
0,1,1,0,0,512,506
1,1,1,0,0,515,505
2,1,1,0,0,518,506
3,1,1,0,0,519,507
4,1,1,0,0,520,507
5,1,1,0,0,521,506
6,1,1,0,0,521,505
7,1,1,0,0,519,505
8,1,1,0,0,516,509
9,1,1,0,0,513,503
10,1,1,0,0,509,508
11,1,1,0,0,505,504
12,1,1,0,0,502,504
13,1,1,0,0,499,505
14,1,1,0,0,498,505
15,1,1,0,0,499,504
0,1,1,0,0,501,504
1,1,1,0,0,503,504
2,1,1,0,0,504,505
3,1,1,0,0,504,503
4,1,1,0,0,504,507
5,1,1,0,0,505,504
6,1,1,0,0,504,504
7,1,1,0,0,505,507
8,1,1,0,0,505,502
9,1,1,0,0,506,504
10,1,1,0,0,505,503
11,1,1,0,0,505,504
12,1,1,0,0,505,504
13,1,1,0,0,505,504
14,1,1,0,0,505,503
15,1,1,0,0,505,504
0,1,1,0,0,504,504
1,1,1,0,0,503,504
2,1,1,0,0,502,504
3,1,1,0,0,499,504
4,1,1,0,0,499,504
5,1,1,0,0,500,504
6,1,1,0,0,500,502
7,1,1,0,0,503,505
8,1,1,0,0,505,502
9,1,1,0,0,508,507
10,1,1,0,0,510,504
11,1,1,0,0,512,504
12,1,1,0,0,513,504
13,1,1,0,0,513,503
14,1,1,0,0,512,502
15,1,1,0,0,511,504
0,1,1,0,0,509,504
1,1,1,0,0,507,504
2,1,1,0,0,504,503
3,1,1,0,0,502,503
4,1,1,0,0,499,504
5,1,1,0,0,497,504
6,1,1,0,0,497,502
7,1,1,0,0,496,507
8,1,1,0,0,496,504
9,1,1,0,0,497,504
10,1,1,0,0,498,505
11,1,1,0,0,499,504
12,1,1,0,0,499,504
13,1,1,0,0,500,503
14,1,1,0,0,502,504
15,1,1,0,0,504,504
0,1,1,0,0,505,504
1,1,1,0,0,508,505
2,1,1,0,0,510,505
3,1,1,0,0,513,504
4,1,1,0,0,516,505
5,1,1,0,0,518,503
6,1,1,0,0,521,507
7,1,1,0,0,524,504
8,1,1,0,0,526,504
9,1,1,0,0,526,508
10,1,1,0,0,526,507
11,1,1,0,0,527,504
12,1,1,0,0,528,503
13,1,1,0,0,529,505
14,1,1,0,0,530,505
15,1,1,0,0,531,505
0,1,1,0,0,532,505
1,1,1,0,0,533,504
2,1,1,0,0,533,504
3,1,1,0,0,533,507
4,1,1,0,0,532,509
5,1,1,0,0,530,505
6,1,1,0,0,529,508
7,1,1,0,0,527,506
8,1,1,0,0,526,507
9,1,1,0,0,526,507
10,1,1,0,0,524,506
11,1,1,0,0,524,504
12,1,1,0,0,523,505
13,1,1,0,0,523,505
14,1,1,0,0,523,507
15,1,1,0,0,521,505
0,1,1,0,0,520,505
1,1,1,0,0,519,506
2,1,1,0,0,519,506
3,1,1,0,0,518,507
4,1,1,0,0,518,507
5,1,1,0,0,518,506
6,1,1,0,0,517,506
7,1,1,0,0,516,510
8,1,1,0,0,516,505
9,1,1,0,0,516,510
10,1,1,0,0,517,505
11,1,1,0,0,516,507
12,1,1,0,0,514,508
13,1,1,0,0,511,507
14,1,1,0,0,508,507
15,1,1,0,0,504,507
0,1,1,0,0,501,508
1,1,1,0,0,499,508
2,1,1,0,0,498,506
3,1,1,0,0,497,510
4,1,1,0,0,498,508
5,1,1,0,0,499,509
6,1,1,0,0,501,507
7,1,1,0,0,503,510
8,1,1,0,0,504,510
9,1,1,0,0,507,508
10,1,1,0,0,507,511
11,1,1,0,0,508,509
12,1,1,0,0,506,509
13,1,1,0,0,506,508
14,1,1,0,0,505,510
15,1,1,0,0,505,509
0,1,1,0,0,504,510
1,1,1,0,0,504,510
2,1,1,0,0,504,510
3,1,1,0,0,503,511
4,1,1,0,0,502,510
5,1,1,0,0,501,508
6,1,1,0,0,500,513
7,1,1,0,0,501,509
8,1,1,0,0,500,511
9,1,1,0,0,501,511
10,1,1,0,0,502,510
11,1,1,0,0,503,510
12,1,1,0,0,504,510
13,1,1,0,0,504,509
14,1,1,0,0,505,510
15,1,1,0,0,505,511
0,1,1,0,0,506,511
1,1,1,0,0,507,510
2,1,1,0,0,506,512
3,1,1,0,0,507,511
4,1,1,0,0,506,512
5,1,1,0,0,507,512
6,1,1,0,0,507,511
7,1,1,0,0,508,512
8,1,1,0,0,509,514
9,1,1,0,0,509,510
10,1,1,0,0,509,514
11,1,1,0,0,508,511
12,1,1,0,0,509,511
13,1,1,0,0,508,512
14,1,1,0,0,509,512
15,1,1,0,0,509,511
0,1,1,0,0,509,511
1,1,1,0,0,510,511
2,1,1,0,0,511,512
3,1,1,0,0,513,512
4,1,1,0,0,515,510
5,1,1,0,0,516,515
6,1,1,0,0,517,512
7,1,1,0,0,517,512
8,1,1,0,0,517,511
9,1,1,0,0,516,514
10,1,1,0,0,515,511
11,1,1,0,0,514,511
12,1,1,0,0,514,512
13,1,1,0,0,514,513
14,1,1,0,0,514,512
15,1,1,0,0,515,512
0,1,1,0,0,516,513
1,1,1,0,0,516,512
2,1,1,0,0,516,511
3,1,1,0,0,515,515
4,1,1,0,0,514,513
5,1,1,0,0,511,514
6,1,1,0,0,508,515
7,1,1,0,0,505,514
8,1,1,0,0,502,513
9,1,1,0,0,499,512
10,1,1,0,0,498,512
11,1,1,0,0,498,512
12,1,1,0,0,499,511
13,1,1,0,0,502,511
14,1,1,0,0,505,511
15,1,1,0,0,509,512
0,1,1,0,0,514,511
1,1,1,0,0,520,512
2,1,1,0,0,527,512
3,1,1,0,0,534,511
4,1,1,0,0,540,513
5,1,1,0,0,546,512
6,1,1,0,0,553,514
7,1,1,0,0,560,512
8,1,1,0,0,566,510
9,1,1,0,0,570,511
10,1,1,0,0,573,512
11,1,1,0,0,573,512
12,1,1,0,0,572,510
13,1,1,0,0,570,509
14,1,1,0,0,569,511
15,1,1,0,0,569,510
0,1,1,0,0,569,508
1,1,1,0,0,568,512
2,1,1,0,0,568,510
3,1,1,0,0,564,510
4,1,1,0,0,560,512
5,1,1,0,0,556,511
6,1,1,0,0,549,512
7,1,1,0,0,541,511
8,1,1,0,0,531,512
9,1,1,0,0,520,512
10,1,1,0,0,511,511
11,1,1,0,0,504,510
12,1,1,0,0,496,509
13,1,1,0,0,491,511
14,1,1,0,0,486,510
15,1,1,0,0,477,510
0,1,1,0,0,463,510
1,1,1,0,0,445,510
2,1,1,0,0,423,511
3,1,1,0,0,399,510
4,1,1,0,0,371,510
5,1,1,0,0,341,511
6,1,1,0,0,315,510
7,1,1,0,0,295,510
8,1,1,0,0,280,511
9,1,1,0,0,269,510
10,1,1,0,0,260,509
11,1,1,0,0,255,508
12,1,1,0,0,249,509
13,1,1,0,0,241,508
14,1,1,0,0,236,509
15,1,1,0,0,235,507
0,1,1,0,0,240,511
1,1,1,0,0,251,510
2,1,1,0,0,263,508
3,1,1,0,0,277,509
4,1,1,0,0,292,510
5,1,1,0,0,311,509
6,1,1,0,0,331,510
7,1,1,0,0,349,511
8,1,1,0,0,367,510
9,1,1,0,0,383,508
10,1,1,0,0,401,506
11,1,1,0,0,420,508
12,1,1,0,0,439,507
13,1,1,0,0,458,508
14,1,1,0,0,475,508
15,1,1,0,0,488,508
0,1,1,0,0,499,508
1,1,1,0,0,510,508
2,1,1,0,0,522,508
3,1,1,0,0,533,506
4,1,1,0,0,544,510
5,1,1,0,0,554,508
6,1,1,0,0,561,508
7,1,1,0,0,567,511
8,1,1,0,0,572,506
9,1,1,0,0,575,510
10,1,1,0,0,576,507
11,1,1,0,0,577,508
12,1,1,0,0,576,510
13,1,1,0,0,576,507
14,1,1,0,0,576,512
15,1,1,0,0,576,508
0,1,1,0,0,575,509
1,1,1,0,0,573,510
2,1,1,0,0,571,508
3,1,1,0,0,569,512
4,1,1,0,0,568,509
5,1,1,0,0,568,509
6,1,1,0,0,568,511
7,1,1,0,0,569,508
8,1,1,0,0,569,512
9,1,1,0,0,569,508
10,1,1,0,0,570,509
11,1,1,0,0,570,513
12,1,1,0,0,571,508
13,1,1,0,0,573,510
14,1,1,0,0,575,508
15,1,1,0,0,575,510
0,1,1,0,0,574,510
1,1,1,0,0,573,510
2,1,1,0,0,572,509
3,1,1,0,0,571,511
4,1,1,0,0,568,509
5,1,1,0,0,566,508
6,1,1,0,0,563,512
7,1,1,0,0,562,510
8,1,1,0,0,561,509
9,1,1,0,0,560,509
10,1,1,0,0,560,512
11,1,1,0,0,560,511
12,1,1,0,0,560,509
13,1,1,0,0,561,507
14,1,1,0,0,561,509
15,1,1,0,0,562,510
0,1,1,0,0,562,509
1,1,1,0,0,562,509
2,1,1,0,0,561,510
3,1,1,0,0,560,508
4,1,1,0,0,560,509
5,1,1,0,0,558,507
6,1,1,0,0,558,511
7,1,1,0,0,557,507
8,1,1,0,0,558,508
9,1,1,0,0,558,512
10,1,1,0,0,559,506
11,1,1,0,0,559,509
12,1,1,0,0,560,507
13,1,1,0,0,561,508
14,1,1,0,0,561,508
15,1,1,0,0,563,508
0,1,1,0,0,564,508
1,1,1,0,0,565,509
2,1,1,0,0,566,508
3,1,1,0,0,567,508
4,1,1,0,0,567,509
5,1,1,0,0,567,508
6,1,1,0,0,567,509
7,1,1,0,0,567,508
8,1,1,0,0,567,506
9,1,1,0,0,566,510
10,1,1,0,0,565,507
11,1,1,0,0,563,511
12,1,1,0,0,561,508
13,1,1,0,0,559,509
14,1,1,0,0,558,508
15,1,1,0,0,558,508
0,1,1,0,0,558,507
1,1,1,0,0,558,508
2,1,1,0,0,559,507
3,1,1,0,0,561,511
4,1,1,0,0,562,508
5,1,1,0,0,563,506
6,1,1,0,0,563,508
7,1,1,0,0,563,509
8,1,1,0,0,563,512
9,1,1,0,0,562,508
10,1,1,0,0,561,507
11,1,1,0,0,559,508
12,1,1,0,0,558,508
13,1,1,0,0,557,507
14,1,1,0,0,556,507
15,1,1,0,0,556,506
0,1,1,0,0,557,507
1,1,1,0,0,556,508
2,1,1,0,0,556,508
3,1,1,0,0,556,508
4,1,1,0,0,555,506
5,1,1,0,0,552,506
6,1,1,0,0,552,511
7,1,1,0,0,552,505
8,1,1,0,0,553,509
9,1,1,0,0,553,504
10,1,1,0,0,552,506
11,1,1,0,0,550,507
12,1,1,0,0,548,506
13,1,1,0,0,546,505
14,1,1,0,0,544,504
15,1,1,0,0,543,506
0,1,1,0,0,542,507
1,1,1,0,0,541,506
2,1,1,0,0,540,506
3,1,1,0,0,540,507
4,1,1,0,0,541,506
5,1,1,0,0,541,507
6,1,1,0,0,542,505
7,1,1,0,0,544,508
8,1,1,0,0,545,505
9,1,1,0,0,547,505
10,1,1,0,0,549,509
11,1,1,0,0,551,504
12,1,1,0,0,553,506
13,1,1,0,0,556,504
14,1,1,0,0,557,505
15,1,1,0,0,558,506
0,1,1,0,0,558,506
1,1,1,0,0,558,505
2,1,1,0,0,557,507
3,1,1,0,0,556,505
4,1,1,0,0,556,504
5,1,1,0,0,556,508
6,1,1,0,0,556,506
7,1,1,0,0,556,505
8,1,1,0,0,556,506
9,1,1,0,0,556,507
10,1,1,0,0,556,504
11,1,1,0,0,557,508
12,1,1,0,0,558,505
13,1,1,0,0,560,507
14,1,1,0,0,561,508
15,1,1,0,0,563,507
0,1,1,0,0,563,507
1,1,1,0,0,565,506
2,1,1,0,0,567,506
3,1,1,0,0,569,509
4,1,1,0,0,571,510
5,1,1,0,0,572,507
6,1,1,0,0,573,511
7,1,1,0,0,574,507
8,1,1,0,0,575,508
9,1,1,0,0,574,508
10,1,1,0,0,575,507
11,1,1,0,0,575,508
12,1,1,0,0,574,506
13,1,1,0,0,572,507
14,1,1,0,0,572,507
15,1,1,0,0,572,506
0,1,1,0,0,572,506
1,1,1,0,0,573,507
2,1,1,0,0,573,507
3,1,1,0,0,574,505
4,1,1,0,0,575,510
5,1,1,0,0,576,507
6,1,1,0,0,575,506
7,1,1,0,0,575,510
8,1,1,0,0,574,510
9,1,1,0,0,573,507
10,1,1,0,0,572,506
11,1,1,0,0,570,507
12,1,1,0,0,569,508
13,1,1,0,0,568,507
14,1,1,0,0,568,507
15,1,1,0,0,568,505
0,1,1,0,0,570,506
1,1,1,0,0,571,507
2,1,1,0,0,571,508
3,1,1,0,0,571,507
4,1,1,0,0,572,506
5,1,1,0,0,572,507
6,1,1,0,0,571,510
7,1,1,0,0,569,505
8,1,1,0,0,567,509
9,1,1,0,0,564,505
10,1,1,0,0,561,508
11,1,1,0,0,559,507
12,1,1,0,0,557,507
13,1,1,0,0,555,506
14,1,1,0,0,552,504
15,1,1,0,0,550,507
0,1,1,0,0,548,507
1,1,1,0,0,547,508
2,1,1,0,0,545,507
3,1,1,0,0,543,509
4,1,1,0,0,542,507
5,1,1,0,0,542,508
6,1,1,0,0,542,508
7,1,1,0,0,541,507
8,1,1,0,0,540,507
9,1,1,0,0,540,509
10,1,1,0,0,538,505
11,1,1,0,0,537,510
12,1,1,0,0,536,507
13,1,1,0,0,534,505
14,1,1,0,0,532,507
15,1,1,0,0,530,508
0,1,1,0,0,527,508
1,1,1,0,0,524,507
2,1,1,0,0,521,508
3,1,1,0,0,518,508
4,1,1,0,0,514,506
5,1,1,0,0,510,510
6,1,1,0,0,507,508
7,1,1,0,0,504,509
8,1,1,0,0,501,510
9,1,1,0,0,499,509
10,1,1,0,0,497,509
11,1,1,0,0,496,508
12,1,1,0,0,494,507
13,1,1,0,0,494,508
14,1,1,0,0,493,509
15,1,1,0,0,495,509
0,1,1,0,0,495,508
1,1,1,0,0,495,511
2,1,1,0,0,494,509
3,1,1,0,0,493,510
4,1,1,0,0,491,510
5,1,1,0,0,487,509
6,1,1,0,0,484,510
7,1,1,0,0,480,512
8,1,1,0,0,477,508
9,1,1,0,0,472,512
10,1,1,0,0,467,509
11,1,1,0,0,463,508
12,1,1,0,0,461,510
13,1,1,0,0,459,511
14,1,1,0,0,458,510
15,1,1,0,0,457,510
0,1,1,0,0,458,512
1,1,1,0,0,457,511
2,1,1,0,0,457,510
3,1,1,0,0,459,514
4,1,1,0,0,460,512
5,1,1,0,0,460,510
6,1,1,0,0,460,511
7,1,1,0,0,462,513
8,1,1,0,0,464,516
9,1,1,0,0,466,512
10,1,1,0,0,467,511
11,1,1,0,0,467,513
12,1,1,0,0,466,512
13,1,1,0,0,464,512
14,1,1,0,0,463,512
15,1,1,0,0,460,511
0,1,1,0,0,457,513
1,1,1,0,0,455,513
2,1,1,0,0,452,514
3,1,1,0,0,451,514
4,1,1,0,0,450,513
5,1,1,0,0,451,513
6,1,1,0,0,451,518
7,1,1,0,0,453,512
8,1,1,0,0,455,517
9,1,1,0,0,457,512
10,1,1,0,0,459,514
11,1,1,0,0,460,515
12,1,1,0,0,461,514
13,1,1,0,0,462,514
14,1,1,0,0,463,513
15,1,1,0,0,462,514
0,1,1,0,0,462,515
1,1,1,0,0,463,515
2,1,1,0,0,464,515
3,1,1,0,0,466,517
4,1,1,0,0,467,515
5,1,1,0,0,467,516
6,1,1,0,0,467,514
7,1,1,0,0,468,518
8,1,1,0,0,469,515
9,1,1,0,0,470,515
10,1,1,0,0,471,519
11,1,1,0,0,472,514
12,1,1,0,0,472,516
13,1,1,0,0,473,515
14,1,1,0,0,473,516
15,1,1,0,0,472,517
0,1,1,0,0,472,517
1,1,1,0,0,471,517
2,1,1,0,0,471,519
3,1,1,0,0,470,517
4,1,1,0,0,470,516
5,1,1,0,0,470,520
6,1,1,0,0,470,518
7,1,1,0,0,470,518
8,1,1,0,0,469,518
9,1,1,0,0,469,521
10,1,1,0,0,470,521
11,1,1,0,0,473,518
12,1,1,0,0,476,517
13,1,1,0,0,480,519
14,1,1,0,0,482,520
15,1,1,0,0,485,519
0,1,1,0,0,487,519
1,1,1,0,0,489,518
2,1,1,0,0,489,519
3,1,1,0,0,489,522
4,1,1,0,0,487,523
5,1,1,0,0,485,520
6,1,1,0,0,485,523
7,1,1,0,0,484,520
8,1,1,0,0,483,521
9,1,1,0,0,481,521
10,1,1,0,0,481,519
11,1,1,0,0,481,518
12,1,1,0,0,481,520
13,1,1,0,0,482,520
14,1,1,0,0,483,520
15,1,1,0,0,483,519
0,1,1,0,0,483,521
1,1,1,0,0,482,520
2,1,1,0,0,481,520
3,1,1,0,0,481,521
4,1,1,0,0,480,520
5,1,1,0,0,479,521
6,1,1,0,0,478,521
7,1,1,0,0,476,521
8,1,1,0,0,476,519
9,1,1,0,0,476,518
10,1,1,0,0,475,519
11,1,1,0,0,476,519
12,1,1,0,0,476,518
13,1,1,0,0,476,519
14,1,1,0,0,476,517
15,1,1,0,0,477,518
0,1,1,0,0,478,519
1,1,1,0,0,480,518
2,1,1,0,0,480,519
3,1,1,0,0,482,519
4,1,1,0,0,483,519
5,1,1,0,0,485,518
6,1,1,0,0,487,521
7,1,1,0,0,488,519
8,1,1,0,0,491,517
9,1,1,0,0,492,518
10,1,1,0,0,494,519
11,1,1,0,0,496,518
12,1,1,0,0,498,516
13,1,1,0,0,499,515
14,1,1,0,0,499,517
15,1,1,0,0,499,515
0,1,1,0,0,498,516
1,1,1,0,0,498,516
2,1,1,0,0,498,516
3,1,1,0,0,497,517
4,1,1,0,0,497,516
5,1,1,0,0,497,516
6,1,1,0,0,497,517
7,1,1,0,0,498,516
8,1,1,0,0,498,519
9,1,1,0,0,499,517
10,1,1,0,0,500,517
11,1,1,0,0,501,516
12,1,1,0,0,501,515
13,1,1,0,0,502,517
14,1,1,0,0,503,515
15,1,1,0,0,504,515
0,1,1,0,0,503,516
1,1,1,0,0,503,515
2,1,1,0,0,502,516
3,1,1,0,0,501,515
4,1,1,0,0,500,515
5,1,1,0,0,500,516
6,1,1,0,0,500,514
7,1,1,0,0,500,515
8,1,1,0,0,500,515
9,1,1,0,0,499,514
10,1,1,0,0,499,513
11,1,1,0,0,499,512
12,1,1,0,0,499,513
13,1,1,0,0,498,512
14,1,1,0,0,499,513
15,1,1,0,0,500,513
0,1,1,0,0,502,512
1,1,1,0,0,504,511
2,1,1,0,0,506,511
3,1,1,0,0,507,514
4,1,1,0,0,507,514
5,1,1,0,0,506,512
6,1,1,0,0,505,511
7,1,1,0,0,504,510
8,1,1,0,0,504,513
9,1,1,0,0,502,510
10,1,1,0,0,501,514
11,1,1,0,0,500,509
12,1,1,0,0,500,510
13,1,1,0,0,499,512
14,1,1,0,0,499,510
15,1,1,0,0,500,513
0,1,1,0,0,500,510
1,1,1,0,0,501,511
2,1,1,0,0,501,512
3,1,1,0,0,502,510
4,1,1,0,0,502,514
5,1,1,0,0,503,511
6,1,1,0,0,504,510
7,1,1,0,0,505,513
8,1,1,0,0,505,510
9,1,1,0,0,506,514
10,1,1,0,0,508,510
11,1,1,0,0,509,510
12,1,1,0,0,511,513
13,1,1,0,0,512,510
14,1,1,0,0,512,512
15,1,1,0,0,512,510
0,1,1,0,0,511,511
1,1,1,0,0,511,511
2,1,1,0,0,510,508
3,1,1,0,0,509,512
4,1,1,0,0,509,510
5,1,1,0,0,508,510
6,1,1,0,0,507,511
7,1,1,0,0,507,511
8,1,1,0,0,508,510
9,1,1,0,0,508,512
10,1,1,0,0,509,511
11,1,1,0,0,511,510
12,1,1,0,0,512,510
13,1,1,0,0,513,509
14,1,1,0,0,514,508
15,1,1,0,0,514,509
0,1,1,0,0,512,510
1,1,1,0,0,511,510
2,1,1,0,0,508,508
3,1,1,0,0,506,508
4,1,1,0,0,504,510
5,1,1,0,0,504,510
6,1,1,0,0,503,507
7,1,1,0,0,504,511
8,1,1,0,0,505,507
9,1,1,0,0,508,509
10,1,1,0,0,510,510
11,1,1,0,0,512,508
12,1,1,0,0,512,508
13,1,1,0,0,511,506
14,1,1,0,0,510,508
15,1,1,0,0,508,508
0,1,1,0,0,508,509
1,1,1,0,0,506,508
2,1,1,0,0,505,509
3,1,1,0,0,503,508
4,1,1,0,0,504,508
5,1,1,0,0,504,506
6,1,1,0,0,505,509
7,1,1,0,0,504,506
8,1,1,0,0,504,507
9,1,1,0,0,504,510
10,1,1,0,0,504,508
11,1,1,0,0,505,506
12,1,1,0,0,506,504
13,1,1,0,0,507,506
14,1,1,0,0,508,507
15,1,1,0,0,509,506
0,1,1,0,0,510,506
1,1,1,0,0,511,508
2,1,1,0,0,512,506
3,1,1,0,0,512,507
4,1,1,0,0,512,507
5,1,1,0,0,512,506
6,1,1,0,0,511,506
7,1,1,0,0,511,508
8,1,1,0,0,509,504
9,1,1,0,0,508,509
10,1,1,0,0,504,504
11,1,1,0,0,501,505
12,1,1,0,0,499,505
13,1,1,0,0,498,506
14,1,1,0,0,498,505
15,1,1,0,0,499,505
0,1,1,0,0,500,504
1,1,1,0,0,501,505
2,1,1,0,0,503,505
3,1,1,0,0,504,505
4,1,1,0,0,506,505
5,1,1,0,0,508,507
6,1,1,0,0,508,505
7,1,1,0,0,509,506
8,1,1,0,0,508,504
9,1,1,0,0,507,508
10,1,1,0,0,507,504
11,1,1,0,0,507,504
12,1,1,0,0,506,506
13,1,1,0,0,505,510
14,1,1,0,0,504,505
15,1,1,0,0,504,504
0,1,1,0,0,505,505
1,1,1,0,0,506,507
2,1,1,0,0,508,504
3,1,1,0,0,510,508
4,1,1,0,0,511,504
5,1,1,0,0,512,506
6,1,1,0,0,515,505
7,1,1,0,0,518,508
8,1,1,0,0,522,506
9,1,1,0,0,526,505
10,1,1,0,0,530,507
11,1,1,0,0,532,507
12,1,1,0,0,533,506
13,1,1,0,0,532,506
14,1,1,0,0,530,508
15,1,1,0,0,528,505
0,1,1,0,0,524,507
1,1,1,0,0,520,507
2,1,1,0,0,516,506
3,1,1,0,0,513,508
4,1,1,0,0,511,506
5,1,1,0,0,510,505
6,1,1,0,0,511,509
7,1,1,0,0,512,506
8,1,1,0,0,515,508
9,1,1,0,0,518,507
10,1,1,0,0,521,507
11,1,1,0,0,525,507
12,1,1,0,0,527,507
13,1,1,0,0,530,505
14,1,1,0,0,533,507
15,1,1,0,0,535,508
0,1,1,0,0,535,508
1,1,1,0,0,535,508
2,1,1,0,0,534,509
3,1,1,0,0,532,508
4,1,1,0,0,529,508
5,1,1,0,0,527,509
6,1,1,0,0,524,508
7,1,1,0,0,520,508
8,1,1,0,0,517,511
9,1,1,0,0,513,507
10,1,1,0,0,512,511
11,1,1,0,0,511,508
12,1,1,0,0,512,508
13,1,1,0,0,512,508
14,1,1,0,0,514,510
15,1,1,0,0,516,509
0,1,1,0,0,518,508
1,1,1,0,0,521,507
2,1,1,0,0,523,508
3,1,1,0,0,525,509
4,1,1,0,0,524,507
5,1,1,0,0,522,512
6,1,1,0,0,519,508
7,1,1,0,0,516,510
8,1,1,0,0,513,508
9,1,1,0,0,510,512
10,1,1,0,0,507,509
11,1,1,0,0,504,508
12,1,1,0,0,503,509
13,1,1,0,0,503,510
14,1,1,0,0,504,510
15,1,1,0,0,504,510
0,1,1,0,0,504,511
1,1,1,0,0,507,510
2,1,1,0,0,509,509
3,1,1,0,0,512,513
4,1,1,0,0,513,511
5,1,1,0,0,513,512
6,1,1,0,0,512,512
7,1,1,0,0,510,512
8,1,1,0,0,508,511
9,1,1,0,0,506,509
10,1,1,0,0,505,510
11,1,1,0,0,504,510
12,1,1,0,0,502,509
13,1,1,0,0,501,510
14,1,1,0,0,500,510
15,1,1,0,0,500,511
0,1,1,0,0,499,509
1,1,1,0,0,499,511
2,1,1,0,0,499,511
3,1,1,0,0,500,511
4,1,1,0,0,500,511
5,1,1,0,0,501,510
6,1,1,0,0,503,513
7,1,1,0,0,504,511
8,1,1,0,0,506,510
9,1,1,0,0,508,511
10,1,1,0,0,508,511
11,1,1,0,0,510,511
12,1,1,0,0,511,509
13,1,1,0,0,511,508
14,1,1,0,0,511,510
15,1,1,0,0,510,509
0,1,1,0,0,509,510
1,1,1,0,0,508,508
2,1,1,0,0,508,512
3,1,1,0,0,507,509
4,1,1,0,0,507,510
5,1,1,0,0,507,512
6,1,1,0,0,507,509
7,1,1,0,0,508,514
8,1,1,0,0,509,510
9,1,1,0,0,511,511
10,1,1,0,0,512,515
11,1,1,0,0,514,509
12,1,1,0,0,516,514
13,1,1,0,0,518,511
14,1,1,0,0,520,513
15,1,1,0,0,521,513
0,1,1,0,0,521,513
1,1,1,0,0,520,512
2,1,1,0,0,519,512
3,1,1,0,0,518,512
4,1,1,0,0,515,514
5,1,1,0,0,513,513
6,1,1,0,0,510,512
7,1,1,0,0,508,512
8,1,1,0,0,508,512
9,1,1,0,0,509,512
10,1,1,0,0,510,515
11,1,1,0,0,512,511
12,1,1,0,0,514,511
13,1,1,0,0,515,512
14,1,1,0,0,515,514
15,1,1,0,0,515,513
0,1,1,0,0,513,513
1,1,1,0,0,512,514
2,1,1,0,0,512,512
3,1,1,0,0,512,511
4,1,1,0,0,514,515
5,1,1,0,0,518,512
6,1,1,0,0,523,516
7,1,1,0,0,529,514
8,1,1,0,0,536,511
9,1,1,0,0,543,513
10,1,1,0,0,550,512
11,1,1,0,0,555,511
12,1,1,0,0,560,512
13,1,1,0,0,564,513
14,1,1,0,0,567,513
15,1,1,0,0,568,512
0,1,1,0,0,568,511
1,1,1,0,0,567,512
2,1,1,0,0,569,513
3,1,1,0,0,571,513
4,1,1,0,0,574,512
5,1,1,0,0,577,511
6,1,1,0,0,580,512
7,1,1,0,0,581,515
8,1,1,0,0,580,510
9,1,1,0,0,578,515
10,1,1,0,0,575,510
11,1,1,0,0,570,512
12,1,1,0,0,563,512
13,1,1,0,0,555,512
14,1,1,0,0,546,511
15,1,1,0,0,539,510
0,1,1,0,0,532,512
1,1,1,0,0,527,512
2,1,1,0,0,521,510
3,1,1,0,0,514,513
4,1,1,0,0,509,510
5,1,1,0,0,504,512
6,1,1,0,0,494,510
7,1,1,0,0,477,513
8,1,1,0,0,455,512
9,1,1,0,0,429,511
10,1,1,0,0,398,512
11,1,1,0,0,366,512
12,1,1,0,0,335,511
13,1,1,0,0,309,510
14,1,1,0,0,292,512
15,1,1,0,0,281,510
0,1,1,0,0,273,511
1,1,1,0,0,268,511
2,1,1,0,0,260,510
3,1,1,0,0,254,512
4,1,1,0,0,248,510
5,1,1,0,0,248,509
6,1,1,0,0,255,513
7,1,1,0,0,266,510
8,1,1,0,0,279,510
9,1,1,0,0,292,511
10,1,1,0,0,307,511
11,1,1,0,0,325,506
12,1,1,0,0,344,511
13,1,1,0,0,366,507
14,1,1,0,0,387,509
15,1,1,0,0,409,510
0,1,1,0,0,431,509
1,1,1,0,0,451,508
2,1,1,0,0,468,508
3,1,1,0,0,485,509
4,1,1,0,0,498,509
5,1,1,0,0,510,510
6,1,1,0,0,519,507
7,1,1,0,0,524,509
8,1,1,0,0,529,509
9,1,1,0,0,534,509
10,1,1,0,0,538,507
11,1,1,0,0,540,505
12,1,1,0,0,542,507
13,1,1,0,0,544,505
14,1,1,0,0,546,507
15,1,1,0,0,548,507
0,1,1,0,0,550,506
1,1,1,0,0,552,508
2,1,1,0,0,554,505
3,1,1,0,0,555,507
4,1,1,0,0,554,508
5,1,1,0,0,554,507
6,1,1,0,0,554,508
7,1,1,0,0,553,507
8,1,1,0,0,553,507
9,1,1,0,0,552,505
10,1,1,0,0,550,504
11,1,1,0,0,548,505
12,1,1,0,0,547,504
13,1,1,0,0,547,505
14,1,1,0,0,546,506
15,1,1,0,0,546,505
0,1,1,0,0,546,504
1,1,1,0,0,547,504
2,1,1,0,0,548,507
3,1,1,0,0,550,507
4,1,1,0,0,550,505
5,1,1,0,0,551,508
6,1,1,0,0,551,506
7,1,1,0,0,551,507
8,1,1,0,0,551,507
9,1,1,0,0,551,505
10,1,1,0,0,551,506
11,1,1,0,0,551,506
12,1,1,0,0,551,505
13,1,1,0,0,551,506
14,1,1,0,0,551,505
15,1,1,0,0,551,507
0,1,1,0,0,552,505
1,1,1,0,0,552,506
2,1,1,0,0,552,507
3,1,1,0,0,554,505
4,1,1,0,0,555,504
5,1,1,0,0,556,505
6,1,1,0,0,557,509
7,1,1,0,0,558,504
8,1,1,0,0,559,508
9,1,1,0,0,560,504
10,1,1,0,0,561,504
11,1,1,0,0,561,509
12,1,1,0,0,561,503
13,1,1,0,0,562,508
14,1,1,0,0,562,505
15,1,1,0,0,560,505
0,1,1,0,0,559,508
1,1,1,0,0,557,505
2,1,1,0,0,555,509
3,1,1,0,0,554,506
4,1,1,0,0,553,506
5,1,1,0,0,552,509
6,1,1,0,0,553,511
7,1,1,0,0,554,507
8,1,1,0,0,556,510
9,1,1,0,0,557,508
10,1,1,0,0,558,509
11,1,1,0,0,560,509
12,1,1,0,0,563,508
13,1,1,0,0,565,507
14,1,1,0,0,566,508
15,1,1,0,0,566,510
0,1,1,0,0,566,509
1,1,1,0,0,566,508
2,1,1,0,0,567,508
3,1,1,0,0,566,509
4,1,1,0,0,563,510
5,1,1,0,0,560,507
6,1,1,0,0,557,511
7,1,1,0,0,554,507
8,1,1,0,0,552,508
9,1,1,0,0,550,509
10,1,1,0,0,549,509
11,1,1,0,0,547,508
12,1,1,0,0,546,509
13,1,1,0,0,545,508
14,1,1,0,0,544,508
15,1,1,0,0,544,508
0,1,1,0,0,543,508
1,1,1,0,0,542,510
2,1,1,0,0,541,507
3,1,1,0,0,541,507
4,1,1,0,0,541,510
5,1,1,0,0,541,509
6,1,1,0,0,541,512
7,1,1,0,0,540,509
8,1,1,0,0,540,506
9,1,1,0,0,541,509
10,1,1,0,0,540,507
11,1,1,0,0,540,506
12,1,1,0,0,541,507
13,1,1,0,0,541,508
14,1,1,0,0,541,508
15,1,1,0,0,540,508
0,1,1,0,0,540,506
1,1,1,0,0,541,508
2,1,1,0,0,542,509
3,1,1,0,0,543,509
4,1,1,0,0,543,508
5,1,1,0,0,544,507
6,1,1,0,0,545,507
7,1,1,0,0,546,512
8,1,1,0,0,548,505
9,1,1,0,0,549,511
10,1,1,0,0,549,506
11,1,1,0,0,549,507
12,1,1,0,0,548,508
13,1,1,0,0,547,508
14,1,1,0,0,547,508
15,1,1,0,0,547,506
0,1,1,0,0,547,507
1,1,1,0,0,546,508
2,1,1,0,0,546,505
3,1,1,0,0,546,510
4,1,1,0,0,547,507
5,1,1,0,0,548,508
6,1,1,0,0,548,507
7,1,1,0,0,550,510
8,1,1,0,0,551,508
9,1,1,0,0,555,507
10,1,1,0,0,558,508
11,1,1,0,0,559,509
12,1,1,0,0,561,508
13,1,1,0,0,563,508
14,1,1,0,0,563,510
15,1,1,0,0,563,507
0,1,1,0,0,563,508
1,1,1,0,0,561,508
2,1,1,0,0,559,507
3,1,1,0,0,556,510
4,1,1,0,0,555,508
5,1,1,0,0,553,507
6,1,1,0,0,552,511
7,1,1,0,0,551,507
8,1,1,0,0,552,510
9,1,1,0,0,552,508
10,1,1,0,0,553,508
11,1,1,0,0,555,508
12,1,1,0,0,556,508
13,1,1,0,0,557,506
14,1,1,0,0,557,508
15,1,1,0,0,559,509
0,1,1,0,0,561,509
1,1,1,0,0,563,508
2,1,1,0,0,564,510
3,1,1,0,0,564,508
4,1,1,0,0,563,508
5,1,1,0,0,563,509
6,1,1,0,0,561,508
7,1,1,0,0,559,508
8,1,1,0,0,557,510
9,1,1,0,0,556,506
10,1,1,0,0,555,511
11,1,1,0,0,556,507
12,1,1,0,0,557,507
13,1,1,0,0,558,507
14,1,1,0,0,559,508
15,1,1,0,0,560,508
0,1,1,0,0,561,508
1,1,1,0,0,563,506
2,1,1,0,0,564,508
3,1,1,0,0,566,508
4,1,1,0,0,567,506
5,1,1,0,0,568,510
6,1,1,0,0,569,507
7,1,1,0,0,569,508
8,1,1,0,0,568,507
9,1,1,0,0,566,509
10,1,1,0,0,563,507
11,1,1,0,0,560,506
12,1,1,0,0,558,507
13,1,1,0,0,556,508
14,1,1,0,0,555,508
15,1,1,0,0,553,507
0,1,1,0,0,552,509
1,1,1,0,0,551,508
2,1,1,0,0,550,506
3,1,1,0,0,548,511
4,1,1,0,0,546,508
5,1,1,0,0,545,510
6,1,1,0,0,543,509
7,1,1,0,0,542,506
8,1,1,0,0,540,509
9,1,1,0,0,538,508
10,1,1,0,0,536,506
11,1,1,0,0,536,507
12,1,1,0,0,535,509
13,1,1,0,0,534,508
14,1,1,0,0,532,508
15,1,1,0,0,530,510
0,1,1,0,0,527,508
1,1,1,0,0,526,509
2,1,1,0,0,524,510
3,1,1,0,0,523,508
4,1,1,0,0,521,510
5,1,1,0,0,520,508
6,1,1,0,0,519,508
7,1,1,0,0,517,512
8,1,1,0,0,517,508
9,1,1,0,0,517,511
10,1,1,0,0,518,509
11,1,1,0,0,519,510
12,1,1,0,0,519,510
13,1,1,0,0,519,509
14,1,1,0,0,519,508
15,1,1,0,0,518,509
0,1,1,0,0,514,511
1,1,1,0,0,510,511
2,1,1,0,0,504,510
3,1,1,0,0,499,510
4,1,1,0,0,495,511
5,1,1,0,0,492,512
6,1,1,0,0,489,510
7,1,1,0,0,486,513
8,1,1,0,0,482,510
9,1,1,0,0,478,512
10,1,1,0,0,476,512
11,1,1,0,0,475,512
12,1,1,0,0,475,512
13,1,1,0,0,475,510
14,1,1,0,0,476,511
15,1,1,0,0,476,513
0,1,1,0,0,476,513
1,1,1,0,0,475,513
2,1,1,0,0,474,514
3,1,1,0,0,474,513
4,1,1,0,0,473,513
5,1,1,0,0,472,512
6,1,1,0,0,472,516
7,1,1,0,0,472,512
8,1,1,0,0,471,513
9,1,1,0,0,472,517
10,1,1,0,0,472,518
11,1,1,0,0,473,514
12,1,1,0,0,474,513
13,1,1,0,0,476,515
14,1,1,0,0,478,516
15,1,1,0,0,479,516
0,1,1,0,0,479,515
1,1,1,0,0,478,514
2,1,1,0,0,478,515
3,1,1,0,0,479,518
4,1,1,0,0,479,519
5,1,1,0,0,480,516
6,1,1,0,0,480,519
7,1,1,0,0,480,517
8,1,1,0,0,480,518
9,1,1,0,0,480,519
10,1,1,0,0,481,517
11,1,1,0,0,481,515
12,1,1,0,0,481,517
13,1,1,0,0,481,518
14,1,1,0,0,481,519
15,1,1,0,0,480,518
0,1,1,0,0,481,520
1,1,1,0,0,482,518
2,1,1,0,0,482,519
3,1,1,0,0,482,520
4,1,1,0,0,483,519
5,1,1,0,0,486,519
6,1,1,0,0,488,519
7,1,1,0,0,490,518
8,1,1,0,0,492,522
9,1,1,0,0,492,519
10,1,1,0,0,491,518
11,1,1,0,0,490,519
12,1,1,0,0,487,520
13,1,1,0,0,485,519
14,1,1,0,0,482,519
15,1,1,0,0,480,522
0,1,1,0,0,477,519
1,1,1,0,0,475,521
2,1,1,0,0,473,521
3,1,1,0,0,473,521
4,1,1,0,0,474,522
5,1,1,0,0,475,521
6,1,1,0,0,477,519
7,1,1,0,0,479,523
8,1,1,0,0,482,520
9,1,1,0,0,484,524
10,1,1,0,0,487,521
11,1,1,0,0,489,519
12,1,1,0,0,491,523
13,1,1,0,0,491,521
14,1,1,0,0,492,519
15,1,1,0,0,492,521
0,1,1,0,0,491,523
1,1,1,0,0,490,522
2,1,1,0,0,489,521
3,1,1,0,0,488,521
4,1,1,0,0,487,522
5,1,1,0,0,487,523
6,1,1,0,0,487,523
7,1,1,0,0,487,523
8,1,1,0,0,486,524
9,1,1,0,0,487,522
10,1,1,0,0,487,523
11,1,1,0,0,489,520
12,1,1,0,0,492,526
13,1,1,0,0,495,521
14,1,1,0,0,497,523
15,1,1,0,0,499,521
0,1,1,0,0,500,525
1,1,1,0,0,499,523
2,1,1,0,0,499,521
3,1,1,0,0,499,524
4,1,1,0,0,499,524
5,1,1,0,0,499,523
6,1,1,0,0,499,522
7,1,1,0,0,498,521
8,1,1,0,0,498,522
9,1,1,0,0,497,524
10,1,1,0,0,496,526
11,1,1,0,0,496,522
12,1,1,0,0,496,520
13,1,1,0,0,496,522
14,1,1,0,0,497,523
15,1,1,0,0,498,523
0,1,1,0,0,498,522
1,1,1,0,0,499,520
2,1,1,0,0,499,520
3,1,1,0,0,500,524
4,1,1,0,0,500,526
5,1,1,0,0,500,522
6,1,1,0,0,500,525
7,1,1,0,0,501,522
8,1,1,0,0,502,522
9,1,1,0,0,502,522
10,1,1,0,0,501,521
11,1,1,0,0,502,519
12,1,1,0,0,502,519
13,1,1,0,0,501,519
14,1,1,0,0,501,520
15,1,1,0,0,502,519
0,1,1,0,0,501,521
1,1,1,0,0,502,519
2,1,1,0,0,502,519
3,1,1,0,0,503,520
4,1,1,0,0,503,519
5,1,1,0,0,504,519
6,1,1,0,0,505,519
7,1,1,0,0,506,517
8,1,1,0,0,507,521
9,1,1,0,0,507,517
10,1,1,0,0,507,517
11,1,1,0,0,509,518
12,1,1,0,0,510,518
13,1,1,0,0,511,518
14,1,1,0,0,511,516
15,1,1,0,0,511,515
0,1,1,0,0,511,516
1,1,1,0,0,510,517
2,1,1,0,0,509,517
3,1,1,0,0,508,516
4,1,1,0,0,507,518
5,1,1,0,0,507,515
6,1,1,0,0,507,516
7,1,1,0,0,509,516
8,1,1,0,0,511,515
9,1,1,0,0,513,516
10,1,1,0,0,514,515
11,1,1,0,0,515,516
12,1,1,0,0,516,514
13,1,1,0,0,515,513
14,1,1,0,0,514,515
15,1,1,0,0,513,513
0,1,1,0,0,511,514
1,1,1,0,0,508,514
2,1,1,0,0,507,512
3,1,1,0,0,507,514
4,1,1,0,0,509,513
5,1,1,0,0,510,513
6,1,1,0,0,511,514
7,1,1,0,0,512,512
8,1,1,0,0,513,513
9,1,1,0,0,514,512
10,1,1,0,0,513,512
11,1,1,0,0,514,511
12,1,1,0,0,513,510
13,1,1,0,0,513,512
14,1,1,0,0,513,510
15,1,1,0,0,513,511
0,1,1,0,0,513,508
1,1,1,0,0,514,512
2,1,1,0,0,515,512
3,1,1,0,0,515,510
4,1,1,0,0,515,511
5,1,1,0,0,515,511
6,1,1,0,0,515,509
7,1,1,0,0,515,510
8,1,1,0,0,514,510
9,1,1,0,0,514,510
10,1,1,0,0,515,508
11,1,1,0,0,515,506
12,1,1,0,0,517,508
13,1,1,0,0,519,506
14,1,1,0,0,519,508
15,1,1,0,0,519,508
0,1,1,0,0,518,507
1,1,1,0,0,517,506
2,1,1,0,0,517,506
3,1,1,0,0,516,508
4,1,1,0,0,517,505
5,1,1,0,0,517,510
6,1,1,0,0,517,507
7,1,1,0,0,516,507
8,1,1,0,0,516,510
9,1,1,0,0,515,504
10,1,1,0,0,515,509
11,1,1,0,0,514,506
12,1,1,0,0,513,506
13,1,1,0,0,513,508
14,1,1,0,0,513,505
15,1,1,0,0,513,511
0,1,1,0,0,514,507
1,1,1,0,0,515,507
2,1,1,0,0,516,509
3,1,1,0,0,519,506
4,1,1,0,0,521,511
5,1,1,0,0,524,508
6,1,1,0,0,526,508
7,1,1,0,0,527,510
8,1,1,0,0,528,512
9,1,1,0,0,528,508
10,1,1,0,0,528,507
11,1,1,0,0,526,507
12,1,1,0,0,524,508
13,1,1,0,0,522,508
14,1,1,0,0,519,506
15,1,1,0,0,518,505
0,1,1,0,0,516,506
1,1,1,0,0,515,508
2,1,1,0,0,513,508
3,1,1,0,0,513,506
4,1,1,0,0,513,505
5,1,1,0,0,514,506
6,1,1,0,0,516,509
7,1,1,0,0,518,504
8,1,1,0,0,520,509
9,1,1,0,0,522,504
10,1,1,0,0,523,507
11,1,1,0,0,523,507
12,1,1,0,0,523,507
13,1,1,0,0,522,506
14,1,1,0,0,521,504
15,1,1,0,0,519,505
0,1,1,0,0,517,507
1,1,1,0,0,514,507
2,1,1,0,0,512,506
3,1,1,0,0,509,508
4,1,1,0,0,508,506
5,1,1,0,0,507,507
6,1,1,0,0,507,508
7,1,1,0,0,509,506
8,1,1,0,0,511,508
9,1,1,0,0,512,508
10,1,1,0,0,515,505
11,1,1,0,0,516,509
12,1,1,0,0,517,505
13,1,1,0,0,518,505
14,1,1,0,0,517,506
15,1,1,0,0,516,507
0,1,1,0,0,515,507
1,1,1,0,0,515,507
2,1,1,0,0,514,508
3,1,1,0,0,513,506
4,1,1,0,0,513,505
5,1,1,0,0,513,510
6,1,1,0,0,512,507
7,1,1,0,0,512,508
8,1,1,0,0,512,509
9,1,1,0,0,511,509
10,1,1,0,0,511,508
11,1,1,0,0,511,507
12,1,1,0,0,511,507
13,1,1,0,0,512,507
14,1,1,0,0,513,508
15,1,1,0,0,515,508
0,1,1,0,0,518,507
1,1,1,0,0,519,509
2,1,1,0,0,522,507
3,1,1,0,0,524,508
4,1,1,0,0,526,509
5,1,1,0,0,527,508
6,1,1,0,0,528,508
7,1,1,0,0,528,509
8,1,1,0,0,527,506
9,1,1,0,0,526,511
10,1,1,0,0,524,507
11,1,1,0,0,521,506
12,1,1,0,0,518,508
13,1,1,0,0,515,509
14,1,1,0,0,513,509
15,1,1,0,0,511,508
0,1,1,0,0,509,510
1,1,1,0,0,507,508
2,1,1,0,0,506,508
3,1,1,0,0,505,511
4,1,1,0,0,505,509
5,1,1,0,0,505,511
6,1,1,0,0,506,509
7,1,1,0,0,507,510
8,1,1,0,0,507,509
9,1,1,0,0,508,507
10,1,1,0,0,508,508
11,1,1,0,0,509,507
12,1,1,0,0,510,508
13,1,1,0,0,512,508
14,1,1,0,0,512,507
15,1,1,0,0,512,509
0,1,1,0,0,512,507
1,1,1,0,0,513,508
2,1,1,0,0,514,509
3,1,1,0,0,515,508
4,1,1,0,0,516,510
5,1,1,0,0,517,508
6,1,1,0,0,519,512
7,1,1,0,0,521,509
8,1,1,0,0,524,507
9,1,1,0,0,526,509
10,1,1,0,0,528,508
11,1,1,0,0,530,509
12,1,1,0,0,531,508
13,1,1,0,0,531,507
14,1,1,0,0,531,509
15,1,1,0,0,530,508
0,1,1,0,0,529,509
1,1,1,0,0,529,506
2,1,1,0,0,528,511
3,1,1,0,0,527,508
4,1,1,0,0,527,508
5,1,1,0,0,526,511
6,1,1,0,0,526,508
7,1,1,0,0,526,512
8,1,1,0,0,526,508
9,1,1,0,0,526,510
10,1,1,0,0,526,513
11,1,1,0,0,527,508
12,1,1,0,0,528,513
13,1,1,0,0,529,510
14,1,1,0,0,532,512
15,1,1,0,0,535,510
0,1,1,0,0,536,513
1,1,1,0,0,537,512
2,1,1,0,0,537,510
3,1,1,0,0,537,511
4,1,1,0,0,536,512
5,1,1,0,0,534,512
6,1,1,0,0,531,512
7,1,1,0,0,529,513
8,1,1,0,0,528,511
9,1,1,0,0,526,511
10,1,1,0,0,524,515
11,1,1,0,0,521,512
12,1,1,0,0,518,511
13,1,1,0,0,516,512
14,1,1,0,0,514,513
15,1,1,0,0,512,513
0,1,1,0,0,510,513
1,1,1,0,0,508,515
2,1,1,0,0,507,513
3,1,1,0,0,509,512
4,1,1,0,0,511,516
5,1,1,0,0,512,514
6,1,1,0,0,513,513
7,1,1,0,0,514,513
8,1,1,0,0,515,515
9,1,1,0,0,515,518
10,1,1,0,0,513,514
11,1,1,0,0,511,513
12,1,1,0,0,508,514
13,1,1,0,0,506,515
14,1,1,0,0,503,515
15,1,1,0,0,503,514
0,1,1,0,0,503,512
1,1,1,0,0,503,514
2,1,1,0,0,503,515
3,1,1,0,0,505,515
4,1,1,0,0,507,515
5,1,1,0,0,508,513
6,1,1,0,0,510,514
7,1,1,0,0,511,518
8,1,1,0,0,512,512
9,1,1,0,0,511,517
10,1,1,0,0,511,513
11,1,1,0,0,509,513
12,1,1,0,0,508,515
13,1,1,0,0,507,515
14,1,1,0,0,508,514
15,1,1,0,0,508,513
0,1,1,0,0,509,514
1,1,1,0,0,509,515
2,1,1,0,0,509,512
3,1,1,0,0,509,516
4,1,1,0,0,510,513
5,1,1,0,0,510,515
6,1,1,0,0,510,513
7,1,1,0,0,509,516
8,1,1,0,0,509,515
9,1,1,0,0,509,514
10,1,1,0,0,510,514
11,1,1,0,0,510,515
12,1,1,0,0,511,514
13,1,1,0,0,511,513
14,1,1,0,0,511,515
15,1,1,0,0,511,513
0,1,1,0,0,512,515
1,1,1,0,0,512,515
2,1,1,0,0,512,513
3,1,1,0,0,512,515
4,1,1,0,0,511,513
5,1,1,0,0,510,512
6,1,1,0,0,508,516
7,1,1,0,0,508,512
8,1,1,0,0,508,513
9,1,1,0,0,507,513
10,1,1,0,0,505,511
11,1,1,0,0,505,515
12,1,1,0,0,504,511
13,1,1,0,0,505,510
14,1,1,0,0,504,511
15,1,1,0,0,504,512
0,1,1,0,0,504,512
1,1,1,0,0,504,512
2,1,1,0,0,506,513
3,1,1,0,0,508,511
4,1,1,0,0,509,510
5,1,1,0,0,510,514
6,1,1,0,0,510,511
7,1,1,0,0,511,512
8,1,1,0,0,510,513
9,1,1,0,0,509,512
10,1,1,0,0,509,511
11,1,1,0,0,508,511
12,1,1,0,0,507,510
13,1,1,0,0,508,510
14,1,1,0,0,508,512
15,1,1,0,0,508,512
0,1,1,0,0,508,511
1,1,1,0,0,509,512
2,1,1,0,0,511,510
3,1,1,0,0,514,511
4,1,1,0,0,518,511
5,1,1,0,0,524,510
6,1,1,0,0,531,510
7,1,1,0,0,540,511
8,1,1,0,0,549,509
9,1,1,0,0,558,513
10,1,1,0,0,565,509
11,1,1,0,0,572,508
12,1,1,0,0,575,510
13,1,1,0,0,578,510
14,1,1,0,0,579,511
15,1,1,0,0,579,510
0,1,1,0,0,580,512
1,1,1,0,0,581,509
2,1,1,0,0,581,508
3,1,1,0,0,583,512
4,1,1,0,0,585,510
5,1,1,0,0,587,508
6,1,1,0,0,587,510
7,1,1,0,0,586,510
8,1,1,0,0,585,507
9,1,1,0,0,583,512
10,1,1,0,0,579,508
11,1,1,0,0,572,509
12,1,1,0,0,562,511
13,1,1,0,0,553,510
14,1,1,0,0,545,509
15,1,1,0,0,535,507
0,1,1,0,0,524,509
1,1,1,0,0,515,509
2,1,1,0,0,508,507
3,1,1,0,0,502,511
4,1,1,0,0,495,508
5,1,1,0,0,481,508
6,1,1,0,0,462,508
7,1,1,0,0,438,512
8,1,1,0,0,408,508
9,1,1,0,0,375,507
10,1,1,0,0,342,508
11,1,1,0,0,315,509
12,1,1,0,0,296,508
13,1,1,0,0,286,508
14,1,1,0,0,278,509
15,1,1,0,0,272,507
0,1,1,0,0,266,508
1,1,1,0,0,259,508
2,1,1,0,0,252,507
3,1,1,0,0,248,508
4,1,1,0,0,249,507
5,1,1,0,0,256,506
6,1,1,0,0,268,510
7,1,1,0,0,280,506
8,1,1,0,0,295,509
9,1,1,0,0,311,506
10,1,1,0,0,330,504
11,1,1,0,0,350,508
12,1,1,0,0,371,506
13,1,1,0,0,391,505
14,1,1,0,0,409,506
15,1,1,0,0,427,507
0,1,1,0,0,444,507
1,1,1,0,0,461,505
2,1,1,0,0,476,504
3,1,1,0,0,488,505
4,1,1,0,0,498,507
5,1,1,0,0,506,507
6,1,1,0,0,512,505
7,1,1,0,0,519,504
8,1,1,0,0,524,505
9,1,1,0,0,529,509
10,1,1,0,0,535,504
11,1,1,0,0,540,509
12,1,1,0,0,543,505
13,1,1,0,0,547,506
14,1,1,0,0,550,507
15,1,1,0,0,552,508
0,1,1,0,0,552,507
1,1,1,0,0,553,508
2,1,1,0,0,553,506
3,1,1,0,0,553,508
4,1,1,0,0,552,508
5,1,1,0,0,552,506
6,1,1,0,0,552,507
7,1,1,0,0,552,506
8,1,1,0,0,552,508
9,1,1,0,0,553,506
10,1,1,0,0,554,504
11,1,1,0,0,556,506
12,1,1,0,0,557,504
13,1,1,0,0,558,505
14,1,1,0,0,558,505
15,1,1,0,0,558,504
0,1,1,0,0,559,506
1,1,1,0,0,560,505
2,1,1,0,0,561,505
3,1,1,0,0,562,506
4,1,1,0,0,563,505
5,1,1,0,0,564,507
6,1,1,0,0,564,504
7,1,1,0,0,565,507
8,1,1,0,0,566,504
9,1,1,0,0,566,503
10,1,1,0,0,565,504
11,1,1,0,0,564,504
12,1,1,0,0,562,504
13,1,1,0,0,560,504
14,1,1,0,0,558,503
15,1,1,0,0,556,505
0,1,1,0,0,554,504
1,1,1,0,0,552,504
2,1,1,0,0,551,505
3,1,1,0,0,551,504
4,1,1,0,0,551,506
5,1,1,0,0,551,504
6,1,1,0,0,552,505
7,1,1,0,0,553,505
8,1,1,0,0,554,503
9,1,1,0,0,556,504
10,1,1,0,0,559,504
11,1,1,0,0,561,505
12,1,1,0,0,562,501
13,1,1,0,0,561,505
14,1,1,0,0,559,505
15,1,1,0,0,557,504
0,1,1,0,0,556,505
1,1,1,0,0,554,503
2,1,1,0,0,553,507
3,1,1,0,0,551,504
4,1,1,0,0,550,504
5,1,1,0,0,548,507
6,1,1,0,0,548,504
7,1,1,0,0,548,508
8,1,1,0,0,549,505
9,1,1,0,0,550,505
10,1,1,0,0,551,509
11,1,1,0,0,551,504
12,1,1,0,0,551,508
13,1,1,0,0,553,505
14,1,1,0,0,554,505
15,1,1,0,0,555,508
0,1,1,0,0,556,505
1,1,1,0,0,556,510
2,1,1,0,0,556,505
3,1,1,0,0,557,506
4,1,1,0,0,557,509
5,1,1,0,0,558,512
6,1,1,0,0,556,507
7,1,1,0,0,555,512
8,1,1,0,0,555,508
9,1,1,0,0,554,509
10,1,1,0,0,553,510
11,1,1,0,0,552,508
12,1,1,0,0,551,506
13,1,1,0,0,551,507
14,1,1,0,0,551,508
15,1,1,0,0,551,509
0,1,1,0,0,552,508
1,1,1,0,0,552,509
2,1,1,0,0,552,508
3,1,1,0,0,551,509
4,1,1,0,0,551,510
5,1,1,0,0,550,508
6,1,1,0,0,550,508
7,1,1,0,0,551,510
8,1,1,0,0,551,507
9,1,1,0,0,550,512
10,1,1,0,0,551,508
11,1,1,0,0,551,506
12,1,1,0,0,551,507
13,1,1,0,0,552,510
14,1,1,0,0,553,509
15,1,1,0,0,552,508
0,1,1,0,0,551,510
1,1,1,0,0,551,508
2,1,1,0,0,551,507
3,1,1,0,0,550,511
4,1,1,0,0,549,509
5,1,1,0,0,550,507
6,1,1,0,0,551,508
7,1,1,0,0,551,510
8,1,1,0,0,553,513
9,1,1,0,0,553,510
10,1,1,0,0,552,510
11,1,1,0,0,551,508
12,1,1,0,0,550,509
13,1,1,0,0,548,509
14,1,1,0,0,547,508
15,1,1,0,0,545,507
0,1,1,0,0,545,508
1,1,1,0,0,544,510
2,1,1,0,0,542,509
3,1,1,0,0,540,509
4,1,1,0,0,539,509
5,1,1,0,0,539,509
6,1,1,0,0,539,508
7,1,1,0,0,541,513
8,1,1,0,0,544,508
9,1,1,0,0,547,508
10,1,1,0,0,549,508
11,1,1,0,0,551,509
12,1,1,0,0,551,508
13,1,1,0,0,552,508
14,1,1,0,0,551,509
15,1,1,0,0,552,508
0,1,1,0,0,552,509
1,1,1,0,0,553,509
2,1,1,0,0,554,507
3,1,1,0,0,555,509
4,1,1,0,0,555,508
5,1,1,0,0,556,507
6,1,1,0,0,558,511
7,1,1,0,0,561,508
8,1,1,0,0,563,510
9,1,1,0,0,564,507
10,1,1,0,0,565,505
11,1,1,0,0,566,509
12,1,1,0,0,566,508
13,1,1,0,0,565,506
14,1,1,0,0,565,507
15,1,1,0,0,563,508
0,1,1,0,0,562,508
1,1,1,0,0,561,507
2,1,1,0,0,560,506
3,1,1,0,0,560,507
4,1,1,0,0,559,508
5,1,1,0,0,559,509
6,1,1,0,0,559,507
7,1,1,0,0,559,507
8,1,1,0,0,560,507
9,1,1,0,0,562,511
10,1,1,0,0,563,506
11,1,1,0,0,563,511
12,1,1,0,0,563,507
13,1,1,0,0,564,508
14,1,1,0,0,567,509
15,1,1,0,0,568,510
0,1,1,0,0,568,508
1,1,1,0,0,566,508
2,1,1,0,0,565,508
3,1,1,0,0,563,510
4,1,1,0,0,562,511
5,1,1,0,0,563,508
6,1,1,0,0,562,512
7,1,1,0,0,560,508
8,1,1,0,0,560,510
9,1,1,0,0,559,510
10,1,1,0,0,558,509
11,1,1,0,0,557,507
12,1,1,0,0,556,508
13,1,1,0,0,556,509
14,1,1,0,0,554,509
15,1,1,0,0,553,508
0,1,1,0,0,551,509
1,1,1,0,0,549,508
2,1,1,0,0,547,509
3,1,1,0,0,546,510
4,1,1,0,0,546,509
5,1,1,0,0,545,508
6,1,1,0,0,543,509
7,1,1,0,0,541,507
8,1,1,0,0,540,511
9,1,1,0,0,540,508
10,1,1,0,0,537,507
11,1,1,0,0,534,506
12,1,1,0,0,531,508
13,1,1,0,0,529,509
14,1,1,0,0,527,508
15,1,1,0,0,524,509
0,1,1,0,0,521,507
1,1,1,0,0,520,509
2,1,1,0,0,520,509
3,1,1,0,0,522,508
4,1,1,0,0,524,510
5,1,1,0,0,524,508
6,1,1,0,0,524,508
7,1,1,0,0,523,511
8,1,1,0,0,521,508
9,1,1,0,0,517,512
10,1,1,0,0,512,509
11,1,1,0,0,506,506
12,1,1,0,0,500,511
13,1,1,0,0,495,509
14,1,1,0,0,490,508
15,1,1,0,0,486,509
0,1,1,0,0,483,511
1,1,1,0,0,478,511
2,1,1,0,0,475,510
3,1,1,0,0,472,512
4,1,1,0,0,470,510
5,1,1,0,0,467,512
6,1,1,0,0,466,512
7,1,1,0,0,465,511
8,1,1,0,0,465,511
9,1,1,0,0,465,511
10,1,1,0,0,467,510
11,1,1,0,0,468,514
12,1,1,0,0,471,513
13,1,1,0,0,472,511
14,1,1,0,0,474,512
15,1,1,0,0,475,514
0,1,1,0,0,475,514
1,1,1,0,0,475,513
2,1,1,0,0,476,512
3,1,1,0,0,475,513
4,1,1,0,0,475,516
5,1,1,0,0,475,517
6,1,1,0,0,473,515
7,1,1,0,0,471,516
8,1,1,0,0,467,515
9,1,1,0,0,463,517
10,1,1,0,0,460,517
11,1,1,0,0,457,516
12,1,1,0,0,455,515
13,1,1,0,0,455,515
14,1,1,0,0,457,518
15,1,1,0,0,459,519
0,1,1,0,0,460,518
1,1,1,0,0,460,519
2,1,1,0,0,461,518
3,1,1,0,0,462,519
4,1,1,0,0,462,517
5,1,1,0,0,462,522
6,1,1,0,0,463,518
7,1,1,0,0,463,519
8,1,1,0,0,463,523
9,1,1,0,0,463,521
10,1,1,0,0,463,520
11,1,1,0,0,462,518
12,1,1,0,0,462,519
13,1,1,0,0,462,520
14,1,1,0,0,463,521
15,1,1,0,0,464,519
0,1,1,0,0,465,519
1,1,1,0,0,467,520
2,1,1,0,0,469,521
3,1,1,0,0,471,522
4,1,1,0,0,472,520
5,1,1,0,0,474,520
6,1,1,0,0,475,521
7,1,1,0,0,474,525
8,1,1,0,0,474,519
9,1,1,0,0,474,525
10,1,1,0,0,473,520
11,1,1,0,0,472,523
12,1,1,0,0,470,523
13,1,1,0,0,469,523
14,1,1,0,0,467,522
15,1,1,0,0,466,521
0,1,1,0,0,465,522
1,1,1,0,0,466,524
2,1,1,0,0,468,524
3,1,1,0,0,470,523
4,1,1,0,0,471,524
5,1,1,0,0,472,523
6,1,1,0,0,473,524
7,1,1,0,0,475,525
8,1,1,0,0,475,524
9,1,1,0,0,476,524
10,1,1,0,0,477,525
11,1,1,0,0,478,523
12,1,1,0,0,478,526
13,1,1,0,0,480,525
14,1,1,0,0,481,523
15,1,1,0,0,482,524
0,1,1,0,0,482,525
1,1,1,0,0,481,526
2,1,1,0,0,481,524
3,1,1,0,0,481,524
4,1,1,0,0,481,525
5,1,1,0,0,481,527
6,1,1,0,0,482,523
7,1,1,0,0,482,527
8,1,1,0,0,483,524
9,1,1,0,0,483,525
10,1,1,0,0,484,526
11,1,1,0,0,484,525
12,1,1,0,0,485,525
13,1,1,0,0,486,523
14,1,1,0,0,487,524
15,1,1,0,0,488,525
0,1,1,0,0,490,526
1,1,1,0,0,492,524
2,1,1,0,0,493,526
3,1,1,0,0,494,524
4,1,1,0,0,494,525
5,1,1,0,0,494,522
6,1,1,0,0,493,527
7,1,1,0,0,493,523
8,1,1,0,0,492,523
9,1,1,0,0,491,527
10,1,1,0,0,489,524
11,1,1,0,0,489,524
12,1,1,0,0,490,524
13,1,1,0,0,489,522
14,1,1,0,0,488,524
15,1,1,0,0,487,524
0,1,1,0,0,488,523
1,1,1,0,0,489,521
2,1,1,0,0,490,522
3,1,1,0,0,491,525
4,1,1,0,0,491,526
5,1,1,0,0,491,522
6,1,1,0,0,492,526
7,1,1,0,0,491,522
8,1,1,0,0,489,524
9,1,1,0,0,488,523
10,1,1,0,0,488,521
11,1,1,0,0,488,519
12,1,1,0,0,488,519
13,1,1,0,0,490,521
14,1,1,0,0,492,521
15,1,1,0,0,494,520
0,1,1,0,0,495,521
1,1,1,0,0,496,519
2,1,1,0,0,498,520
3,1,1,0,0,499,520
4,1,1,0,0,499,519
5,1,1,0,0,499,519
6,1,1,0,0,499,519
7,1,1,0,0,499,517
8,1,1,0,0,498,521
9,1,1,0,0,497,517
10,1,1,0,0,496,516
11,1,1,0,0,496,515
12,1,1,0,0,494,517
13,1,1,0,0,493,517
14,1,1,0,0,491,516
15,1,1,0,0,491,516
0,1,1,0,0,490,515
1,1,1,0,0,490,516
2,1,1,0,0,491,516
3,1,1,0,0,492,515
4,1,1,0,0,493,516
5,1,1,0,0,495,514
6,1,1,0,0,496,513
7,1,1,0,0,499,517
8,1,1,0,0,501,514
9,1,1,0,0,502,517
10,1,1,0,0,504,513
11,1,1,0,0,504,510
12,1,1,0,0,505,515
13,1,1,0,0,505,514
14,1,1,0,0,504,511
15,1,1,0,0,503,512
0,1,1,0,0,503,513
1,1,1,0,0,502,513
2,1,1,0,0,501,511
3,1,1,0,0,501,513
4,1,1,0,0,501,511
5,1,1,0,0,502,512
6,1,1,0,0,502,513
7,1,1,0,0,503,511
8,1,1,0,0,504,513
9,1,1,0,0,504,511
10,1,1,0,0,506,513
11,1,1,0,0,507,512
12,1,1,0,0,509,510
13,1,1,0,0,510,512
14,1,1,0,0,510,510
15,1,1,0,0,510,511
0,1,1,0,0,510,511
1,1,1,0,0,510,509
2,1,1,0,0,509,511
3,1,1,0,0,508,509
4,1,1,0,0,507,511
5,1,1,0,0,507,508
6,1,1,0,0,505,512
7,1,1,0,0,505,511
8,1,1,0,0,505,509
9,1,1,0,0,505,510
10,1,1,0,0,507,508
11,1,1,0,0,508,505
12,1,1,0,0,511,508
13,1,1,0,0,512,507
14,1,1,0,0,514,508
15,1,1,0,0,514,508
0,1,1,0,0,515,507
1,1,1,0,0,514,508
2,1,1,0,0,513,506
3,1,1,0,0,513,508
4,1,1,0,0,512,508
5,1,1,0,0,512,506
6,1,1,0,0,511,507
7,1,1,0,0,511,506
8,1,1,0,0,509,507
9,1,1,0,0,508,505
10,1,1,0,0,508,503
11,1,1,0,0,507,504
12,1,1,0,0,506,503
13,1,1,0,0,505,505
14,1,1,0,0,504,506
15,1,1,0,0,504,504
0,1,1,0,0,504,505
1,1,1,0,0,506,504
2,1,1,0,0,507,505
3,1,1,0,0,508,505
4,1,1,0,0,510,504
5,1,1,0,0,511,505
6,1,1,0,0,510,504
7,1,1,0,0,510,508
8,1,1,0,0,509,505
9,1,1,0,0,508,503
10,1,1,0,0,507,504
11,1,1,0,0,505,503
12,1,1,0,0,504,503
13,1,1,0,0,504,504
14,1,1,0,0,504,503
15,1,1,0,0,504,504
0,1,1,0,0,506,503
1,1,1,0,0,506,504
2,1,1,0,0,507,505
3,1,1,0,0,508,503
4,1,1,0,0,509,504
5,1,1,0,0,510,503
6,1,1,0,0,510,508
7,1,1,0,0,510,504
8,1,1,0,0,510,503
9,1,1,0,0,510,503
10,1,1,0,0,510,503
11,1,1,0,0,510,504
12,1,1,0,0,510,503
13,1,1,0,0,510,502
14,1,1,0,0,510,504
15,1,1,0,0,510,502
0,1,1,0,0,510,504
1,1,1,0,0,509,502
2,1,1,0,0,509,506
3,1,1,0,0,509,502
4,1,1,0,0,509,504
5,1,1,0,0,510,507
6,1,1,0,0,510,503
7,1,1,0,0,511,507
8,1,1,0,0,512,504
9,1,1,0,0,512,505
10,1,1,0,0,514,509
11,1,1,0,0,516,504
12,1,1,0,0,518,508
13,1,1,0,0,519,504
14,1,1,0,0,520,505
15,1,1,0,0,521,508
0,1,1,0,0,521,505
1,1,1,0,0,520,509
2,1,1,0,0,519,505
3,1,1,0,0,518,507
4,1,1,0,0,516,509
5,1,1,0,0,515,506
6,1,1,0,0,513,511
7,1,1,0,0,512,507
8,1,1,0,0,511,507
9,1,1,0,0,511,510
10,1,1,0,0,511,506
11,1,1,0,0,510,511
12,1,1,0,0,509,507
13,1,1,0,0,508,508
14,1,1,0,0,507,510
15,1,1,0,0,506,510
0,1,1,0,0,507,509
1,1,1,0,0,507,508
2,1,1,0,0,506,508
3,1,1,0,0,507,511
4,1,1,0,0,507,511
5,1,1,0,0,507,509
6,1,1,0,0,508,514
7,1,1,0,0,509,509
8,1,1,0,0,510,511
9,1,1,0,0,509,511
10,1,1,0,0,508,510
11,1,1,0,0,508,508
12,1,1,0,0,507,508
13,1,1,0,0,505,510
14,1,1,0,0,504,511
15,1,1,0,0,504,509
0,1,1,0,0,504,511
1,1,1,0,0,504,509
2,1,1,0,0,505,511
3,1,1,0,0,507,511
4,1,1,0,0,509,510
5,1,1,0,0,512,510
6,1,1,0,0,514,510
7,1,1,0,0,516,508
8,1,1,0,0,516,513
9,1,1,0,0,516,509
10,1,1,0,0,516,509
11,1,1,0,0,515,508
12,1,1,0,0,513,510
13,1,1,0,0,511,510
14,1,1,0,0,510,510
15,1,1,0,0,508,511
0,1,1,0,0,508,508
1,1,1,0,0,508,511
2,1,1,0,0,507,511
3,1,1,0,0,507,510
4,1,1,0,0,507,512
5,1,1,0,0,508,510
6,1,1,0,0,508,510
7,1,1,0,0,508,513
8,1,1,0,0,510,510
9,1,1,0,0,512,510
10,1,1,0,0,513,510
11,1,1,0,0,515,508
12,1,1,0,0,515,512
13,1,1,0,0,516,511
14,1,1,0,0,517,509
15,1,1,0,0,517,510
0,1,1,0,0,518,512
1,1,1,0,0,518,512
2,1,1,0,0,518,511
3,1,1,0,0,518,512
4,1,1,0,0,519,510
5,1,1,0,0,518,512
6,1,1,0,0,517,513
7,1,1,0,0,515,511
8,1,1,0,0,513,512
9,1,1,0,0,512,511
10,1,1,0,0,512,511
11,1,1,0,0,512,515
12,1,1,0,0,512,512
13,1,1,0,0,511,515
14,1,1,0,0,510,512
15,1,1,0,0,508,514
0,1,1,0,0,507,511
1,1,1,0,0,507,516
2,1,1,0,0,508,512
3,1,1,0,0,508,513
4,1,1,0,0,506,511
5,1,1,0,0,505,515
6,1,1,0,0,504,513
7,1,1,0,0,503,517
8,1,1,0,0,503,513
9,1,1,0,0,502,515
10,1,1,0,0,503,515
11,1,1,0,0,504,513
12,1,1,0,0,505,511
13,1,1,0,0,506,512
14,1,1,0,0,507,514
15,1,1,0,0,509,515
0,1,1,0,0,510,513
1,1,1,0,0,512,514
2,1,1,0,0,513,513
3,1,1,0,0,515,514
4,1,1,0,0,515,515
5,1,1,0,0,515,514
6,1,1,0,0,515,515
7,1,1,0,0,515,514
8,1,1,0,0,514,512
9,1,1,0,0,512,517
10,1,1,0,0,509,513
11,1,1,0,0,507,512
12,1,1,0,0,506,512
13,1,1,0,0,505,514
14,1,1,0,0,504,514
15,1,1,0,0,503,513
0,1,1,0,0,503,515
1,1,1,0,0,505,513
2,1,1,0,0,506,513
3,1,1,0,0,507,517
4,1,1,0,0,507,514
5,1,1,0,0,509,512
6,1,1,0,0,510,513
7,1,1,0,0,510,515
8,1,1,0,0,510,516
9,1,1,0,0,511,515
10,1,1,0,0,511,513
11,1,1,0,0,511,511
12,1,1,0,0,511,514
13,1,1,0,0,510,514
14,1,1,0,0,509,512
15,1,1,0,0,509,511
0,1,1,0,0,508,512
1,1,1,0,0,507,513
2,1,1,0,0,505,514
3,1,1,0,0,505,512
4,1,1,0,0,504,511
5,1,1,0,0,504,512
6,1,1,0,0,505,516
7,1,1,0,0,505,510
8,1,1,0,0,506,515
9,1,1,0,0,507,510
10,1,1,0,0,508,511
11,1,1,0,0,508,513
12,1,1,0,0,509,512
13,1,1,0,0,508,511
14,1,1,0,0,506,510
15,1,1,0,0,504,510
0,1,1,0,0,503,512
1,1,1,0,0,502,513
2,1,1,0,0,501,511
3,1,1,0,0,501,512
4,1,1,0,0,502,510
5,1,1,0,0,504,511
6,1,1,0,0,505,509
7,1,1,0,0,507,514
8,1,1,0,0,509,510
9,1,1,0,0,511,510
10,1,1,0,0,514,514
11,1,1,0,0,518,508
12,1,1,0,0,521,511
13,1,1,0,0,523,509
14,1,1,0,0,526,509
15,1,1,0,0,529,511
0,1,1,0,0,532,511
1,1,1,0,0,532,509
2,1,1,0,0,531,511
3,1,1,0,0,529,509
4,1,1,0,0,527,509
5,1,1,0,0,524,513
6,1,1,0,0,521,511
7,1,1,0,0,519,509
8,1,1,0,0,518,510
9,1,1,0,0,518,513
10,1,1,0,0,519,510
11,1,1,0,0,520,510
12,1,1,0,0,522,509
13,1,1,0,0,524,509
14,1,1,0,0,526,511
15,1,1,0,0,528,511
0,1,1,0,0,529,509
1,1,1,0,0,531,508
2,1,1,0,0,533,509
3,1,1,0,0,535,512
4,1,1,0,0,537,513
5,1,1,0,0,537,509
6,1,1,0,0,536,513
7,1,1,0,0,534,509
8,1,1,0,0,533,511
9,1,1,0,0,531,511
10,1,1,0,0,528,509
11,1,1,0,0,525,507
12,1,1,0,0,522,507
13,1,1,0,0,519,510
14,1,1,0,0,516,509
15,1,1,0,0,516,508
0,1,1,0,0,515,509
1,1,1,0,0,513,508
2,1,1,0,0,512,509
3,1,1,0,0,511,510
4,1,1,0,0,509,508
5,1,1,0,0,510,508
6,1,1,0,0,510,509
7,1,1,0,0,509,506
8,1,1,0,0,510,511
9,1,1,0,0,510,507
10,1,1,0,0,510,506
11,1,1,0,0,510,505
12,1,1,0,0,509,508
13,1,1,0,0,509,508
14,1,1,0,0,509,507
15,1,1,0,0,509,506
0,1,1,0,0,509,505
1,1,1,0,0,509,508
2,1,1,0,0,510,508
3,1,1,0,0,510,506
4,1,1,0,0,509,507
5,1,1,0,0,511,506
6,1,1,0,0,512,505
7,1,1,0,0,513,510
8,1,1,0,0,514,506
9,1,1,0,0,515,509
10,1,1,0,0,516,505
11,1,1,0,0,517,503
12,1,1,0,0,516,508
13,1,1,0,0,515,506
14,1,1,0,0,513,505
15,1,1,0,0,511,505
0,1,1,0,0,510,507
1,1,1,0,0,509,507
2,1,1,0,0,509,505
3,1,1,0,0,509,504
4,1,1,0,0,509,505
5,1,1,0,0,509,507
6,1,1,0,0,508,507
7,1,1,0,0,508,505
8,1,1,0,0,508,504
9,1,1,0,0,507,505
10,1,1,0,0,508,509
11,1,1,0,0,508,504
12,1,1,0,0,510,508
13,1,1,0,0,511,505
14,1,1,0,0,512,505
15,1,1,0,0,512,507
0,1,1,0,0,511,508
1,1,1,0,0,510,506
2,1,1,0,0,507,506
3,1,1,0,0,505,507
4,1,1,0,0,504,508
5,1,1,0,0,503,505
6,1,1,0,0,501,510
7,1,1,0,0,501,505
8,1,1,0,0,503,506
9,1,1,0,0,505,508
10,1,1,0,0,507,507
11,1,1,0,0,509,506
12,1,1,0,0,511,504
13,1,1,0,0,512,505
14,1,1,0,0,513,506
15,1,1,0,0,512,507
0,1,1,0,0,511,504
1,1,1,0,0,510,506
2,1,1,0,0,509,505
3,1,1,0,0,508,507
4,1,1,0,0,507,504
5,1,1,0,0,506,509
6,1,1,0,0,506,505
7,1,1,0,0,505,504
8,1,1,0,0,504,508
9,1,1,0,0,503,508
10,1,1,0,0,502,505
11,1,1,0,0,500,506
12,1,1,0,0,500,504
13,1,1,0,0,501,505
14,1,1,0,0,502,506
15,1,1,0,0,504,505
0,1,1,0,0,505,504
1,1,1,0,0,506,504
2,1,1,0,0,508,506
3,1,1,0,0,509,507
4,1,1,0,0,510,505
5,1,1,0,0,510,506
6,1,1,0,0,511,504
7,1,1,0,0,513,508
8,1,1,0,0,517,505
9,1,1,0,0,519,503
10,1,1,0,0,521,504
11,1,1,0,0,524,503
12,1,1,0,0,525,504
13,1,1,0,0,527,504
14,1,1,0,0,531,503
15,1,1,0,0,536,505
0,1,1,0,0,542,503
1,1,1,0,0,549,505
2,1,1,0,0,555,505
3,1,1,0,0,560,504
4,1,1,0,0,566,505
5,1,1,0,0,572,503
6,1,1,0,0,574,504
7,1,1,0,0,575,508
8,1,1,0,0,575,504
9,1,1,0,0,575,505
10,1,1,0,0,575,504
11,1,1,0,0,575,505
12,1,1,0,0,577,504
13,1,1,0,0,578,503
14,1,1,0,0,579,505
15,1,1,0,0,579,504
0,1,1,0,0,581,505
1,1,1,0,0,581,505
2,1,1,0,0,581,504
3,1,1,0,0,580,505
4,1,1,0,0,577,504
5,1,1,0,0,570,506
6,1,1,0,0,563,507
7,1,1,0,0,556,504
8,1,1,0,0,549,504
9,1,1,0,0,540,504
10,1,1,0,0,529,506
11,1,1,0,0,518,504
12,1,1,0,0,509,503
13,1,1,0,0,501,505
14,1,1,0,0,490,504
15,1,1,0,0,471,504
0,1,1,0,0,446,507
1,1,1,0,0,415,504
2,1,1,0,0,382,506
3,1,1,0,0,347,504
4,1,1,0,0,311,507
5,1,1,0,0,284,507
6,1,1,0,0,266,505
7,1,1,0,0,255,507
8,1,1,0,0,250,506
9,1,1,0,0,247,508
10,1,1,0,0,242,505
11,1,1,0,0,236,504
12,1,1,0,0,231,505
13,1,1,0,0,231,504
14,1,1,0,0,239,506
15,1,1,0,0,251,507
0,1,1,0,0,263,505
1,1,1,0,0,276,505
2,1,1,0,0,290,506
3,1,1,0,0,307,505
4,1,1,0,0,327,508
5,1,1,0,0,347,508
6,1,1,0,0,368,508
7,1,1,0,0,388,508
8,1,1,0,0,407,505
9,1,1,0,0,426,511
10,1,1,0,0,444,506
11,1,1,0,0,460,508
12,1,1,0,0,475,508
13,1,1,0,0,487,507
14,1,1,0,0,497,510
15,1,1,0,0,506,508
0,1,1,0,0,514,508
1,1,1,0,0,522,509
2,1,1,0,0,527,508
3,1,1,0,0,532,511
4,1,1,0,0,536,509
5,1,1,0,0,537,509
6,1,1,0,0,540,509
7,1,1,0,0,543,509
8,1,1,0,0,545,512
9,1,1,0,0,546,511
10,1,1,0,0,547,509
11,1,1,0,0,548,508
12,1,1,0,0,549,511
13,1,1,0,0,549,511
14,1,1,0,0,549,510
15,1,1,0,0,550,510
0,1,1,0,0,552,509
1,1,1,0,0,555,511
2,1,1,0,0,558,511
3,1,1,0,0,561,509
4,1,1,0,0,564,511
5,1,1,0,0,564,509
6,1,1,0,0,566,508
7,1,1,0,0,564,513
8,1,1,0,0,563,510
9,1,1,0,0,560,513
10,1,1,0,0,557,508
11,1,1,0,0,554,507
12,1,1,0,0,551,511
13,1,1,0,0,550,509
14,1,1,0,0,550,508
15,1,1,0,0,550,508
0,1,1,0,0,549,510
1,1,1,0,0,549,510
2,1,1,0,0,550,508
3,1,1,0,0,549,508
4,1,1,0,0,549,508
5,1,1,0,0,550,510
6,1,1,0,0,550,511
7,1,1,0,0,551,508
8,1,1,0,0,552,508
9,1,1,0,0,553,509
10,1,1,0,0,554,512
11,1,1,0,0,557,507
12,1,1,0,0,560,512
13,1,1,0,0,561,508
14,1,1,0,0,562,508
15,1,1,0,0,561,510
0,1,1,0,0,559,510
1,1,1,0,0,555,510
2,1,1,0,0,552,509
3,1,1,0,0,549,509
4,1,1,0,0,546,511
5,1,1,0,0,544,508
6,1,1,0,0,543,512
7,1,1,0,0,542,508
8,1,1,0,0,541,509
9,1,1,0,0,541,511
10,1,1,0,0,541,510
11,1,1,0,0,542,508
12,1,1,0,0,543,507
13,1,1,0,0,545,507
14,1,1,0,0,547,509
15,1,1,0,0,550,509
0,1,1,0,0,551,508
1,1,1,0,0,551,509
2,1,1,0,0,552,508
3,1,1,0,0,552,509
4,1,1,0,0,551,507
5,1,1,0,0,551,512
6,1,1,0,0,552,507
7,1,1,0,0,552,507
8,1,1,0,0,551,511
9,1,1,0,0,551,508
10,1,1,0,0,551,508
11,1,1,0,0,551,505
12,1,1,0,0,550,506
13,1,1,0,0,550,508
14,1,1,0,0,550,508
15,1,1,0,0,551,506
0,1,1,0,0,551,505
1,1,1,0,0,551,506
2,1,1,0,0,551,507
3,1,1,0,0,553,508
4,1,1,0,0,554,506
5,1,1,0,0,554,505
6,1,1,0,0,554,506
7,1,1,0,0,554,511
8,1,1,0,0,553,505
9,1,1,0,0,552,510
10,1,1,0,0,551,505
11,1,1,0,0,550,507
12,1,1,0,0,549,508
13,1,1,0,0,548,508
14,1,1,0,0,548,507
15,1,1,0,0,549,505
0,1,1,0,0,549,505
1,1,1,0,0,549,508
2,1,1,0,0,550,507
3,1,1,0,0,551,507
4,1,1,0,0,551,507
5,1,1,0,0,551,506
6,1,1,0,0,553,508
7,1,1,0,0,556,508
8,1,1,0,0,558,507
9,1,1,0,0,559,507
10,1,1,0,0,560,507
11,1,1,0,0,562,505
12,1,1,0,0,563,509
13,1,1,0,0,565,508
14,1,1,0,0,565,507
15,1,1,0,0,563,507
0,1,1,0,0,560,508
1,1,1,0,0,556,509
2,1,1,0,0,552,508
3,1,1,0,0,550,507
4,1,1,0,0,547,507
5,1,1,0,0,545,508
6,1,1,0,0,544,506
7,1,1,0,0,543,510
8,1,1,0,0,542,506
9,1,1,0,0,541,507
10,1,1,0,0,540,508
11,1,1,0,0,540,509
12,1,1,0,0,540,508
13,1,1,0,0,542,507
14,1,1,0,0,543,507
15,1,1,0,0,544,509
0,1,1,0,0,545,509
1,1,1,0,0,546,507
2,1,1,0,0,546,507
3,1,1,0,0,546,507
4,1,1,0,0,546,510
5,1,1,0,0,545,507
6,1,1,0,0,544,511
7,1,1,0,0,544,506
8,1,1,0,0,544,507
9,1,1,0,0,545,509
10,1,1,0,0,548,508
11,1,1,0,0,550,507
12,1,1,0,0,552,505
13,1,1,0,0,555,505
14,1,1,0,0,558,507
15,1,1,0,0,560,508
0,1,1,0,0,562,505
1,1,1,0,0,564,507
2,1,1,0,0,564,505
3,1,1,0,0,564,508
4,1,1,0,0,563,505
5,1,1,0,0,561,510
6,1,1,0,0,560,505
7,1,1,0,0,558,505
8,1,1,0,0,556,510
9,1,1,0,0,555,503
10,1,1,0,0,554,507
11,1,1,0,0,554,504
12,1,1,0,0,554,504
13,1,1,0,0,555,506
14,1,1,0,0,556,507
15,1,1,0,0,558,505
0,1,1,0,0,559,505
1,1,1,0,0,560,505
2,1,1,0,0,560,507
3,1,1,0,0,563,507
4,1,1,0,0,563,504
5,1,1,0,0,563,506
6,1,1,0,0,563,505
7,1,1,0,0,563,504
8,1,1,0,0,563,509
9,1,1,0,0,563,505
10,1,1,0,0,562,509
11,1,1,0,0,562,504
12,1,1,0,0,562,506
13,1,1,0,0,562,507
14,1,1,0,0,561,506
15,1,1,0,0,560,504
0,1,1,0,0,559,505
1,1,1,0,0,558,507
2,1,1,0,0,558,507
3,1,1,0,0,557,506
4,1,1,0,0,556,505
5,1,1,0,0,555,505
6,1,1,0,0,555,505
7,1,1,0,0,554,509
8,1,1,0,0,553,505
9,1,1,0,0,552,506
10,1,1,0,0,552,505
11,1,1,0,0,551,507
12,1,1,0,0,550,507
13,1,1,0,0,548,507
14,1,1,0,0,547,505
15,1,1,0,0,545,505
0,1,1,0,0,544,508
1,1,1,0,0,542,509
2,1,1,0,0,540,506
3,1,1,0,0,537,507
4,1,1,0,0,535,506
5,1,1,0,0,532,508
6,1,1,0,0,530,505
7,1,1,0,0,527,511
8,1,1,0,0,526,507
9,1,1,0,0,525,507
10,1,1,0,0,524,511
11,1,1,0,0,523,508
12,1,1,0,0,521,508
13,1,1,0,0,520,506
14,1,1,0,0,518,507
15,1,1,0,0,517,509
0,1,1,0,0,514,510
1,1,1,0,0,511,508
2,1,1,0,0,509,507
3,1,1,0,0,507,508
4,1,1,0,0,505,511
5,1,1,0,0,502,508
6,1,1,0,0,499,512
7,1,1,0,0,496,508
8,1,1,0,0,493,510
9,1,1,0,0,490,510
10,1,1,0,0,489,511
11,1,1,0,0,488,511
12,1,1,0,0,487,509
13,1,1,0,0,484,509
14,1,1,0,0,482,512
15,1,1,0,0,480,512
0,1,1,0,0,479,510
1,1,1,0,0,479,511
2,1,1,0,0,478,511
3,1,1,0,0,478,510
4,1,1,0,0,477,515
5,1,1,0,0,476,513
6,1,1,0,0,476,512
7,1,1,0,0,475,512
8,1,1,0,0,475,516
9,1,1,0,0,475,515
10,1,1,0,0,474,513
11,1,1,0,0,473,512
12,1,1,0,0,472,513
13,1,1,0,0,472,515
14,1,1,0,0,471,515
15,1,1,0,0,472,513
0,1,1,0,0,473,513
1,1,1,0,0,475,515
2,1,1,0,0,475,515
3,1,1,0,0,475,516
4,1,1,0,0,473,515
5,1,1,0,0,472,516
6,1,1,0,0,471,514
7,1,1,0,0,469,518
8,1,1,0,0,466,517
9,1,1,0,0,465,514
10,1,1,0,0,462,515
11,1,1,0,0,459,514
12,1,1,0,0,456,516
13,1,1,0,0,454,517
14,1,1,0,0,451,515
15,1,1,0,0,449,517
0,1,1,0,0,447,515
1,1,1,0,0,446,516
2,1,1,0,0,445,520
3,1,1,0,0,445,517
4,1,1,0,0,445,519
5,1,1,0,0,446,518
6,1,1,0,0,448,520
7,1,1,0,0,449,519
8,1,1,0,0,451,517
9,1,1,0,0,454,517
10,1,1,0,0,457,517
11,1,1,0,0,460,519
12,1,1,0,0,461,519
13,1,1,0,0,462,518
14,1,1,0,0,463,519
15,1,1,0,0,462,519
0,1,1,0,0,461,519
1,1,1,0,0,460,522
2,1,1,0,0,459,521
3,1,1,0,0,458,521
4,1,1,0,0,459,520
5,1,1,0,0,459,520
6,1,1,0,0,460,523
7,1,1,0,0,461,522
8,1,1,0,0,462,523
9,1,1,0,0,462,523
10,1,1,0,0,462,521
11,1,1,0,0,463,524
12,1,1,0,0,465,522
13,1,1,0,0,467,523
14,1,1,0,0,468,523
15,1,1,0,0,469,524
0,1,1,0,0,469,525
1,1,1,0,0,469,523
2,1,1,0,0,470,524
3,1,1,0,0,470,523
4,1,1,0,0,470,525
5,1,1,0,0,470,526
6,1,1,0,0,470,524
7,1,1,0,0,470,525
8,1,1,0,0,470,523
9,1,1,0,0,470,526
10,1,1,0,0,471,524
11,1,1,0,0,472,522
12,1,1,0,0,473,524
13,1,1,0,0,475,522
14,1,1,0,0,476,524
15,1,1,0,0,478,525
0,1,1,0,0,480,523
1,1,1,0,0,481,524
2,1,1,0,0,482,523
3,1,1,0,0,483,525
4,1,1,0,0,483,526
5,1,1,0,0,483,525
6,1,1,0,0,483,524
7,1,1,0,0,483,524
8,1,1,0,0,482,526
9,1,1,0,0,482,524
10,1,1,0,0,483,522
11,1,1,0,0,483,523
12,1,1,0,0,482,521
13,1,1,0,0,483,523
14,1,1,0,0,482,524
15,1,1,0,0,481,521
0,1,1,0,0,481,522
1,1,1,0,0,480,522
2,1,1,0,0,480,524
3,1,1,0,0,481,524
4,1,1,0,0,481,522
5,1,1,0,0,482,523
6,1,1,0,0,481,521
7,1,1,0,0,480,523
8,1,1,0,0,480,522
9,1,1,0,0,479,519
10,1,1,0,0,479,519
11,1,1,0,0,478,518
12,1,1,0,0,476,520
13,1,1,0,0,474,520
14,1,1,0,0,474,519
15,1,1,0,0,473,523
0,1,1,0,0,472,519
1,1,1,0,0,471,520
2,1,1,0,0,473,521
3,1,1,0,0,475,518
4,1,1,0,0,477,519
5,1,1,0,0,479,518
6,1,1,0,0,481,522
7,1,1,0,0,482,519
8,1,1,0,0,484,517
9,1,1,0,0,486,516
10,1,1,0,0,486,516
11,1,1,0,0,486,519
12,1,1,0,0,487,515
13,1,1,0,0,487,520
14,1,1,0,0,487,515
15,1,1,0,0,488,516
0,1,1,0,0,488,518
1,1,1,0,0,488,515
2,1,1,0,0,489,519
3,1,1,0,0,490,515
4,1,1,0,0,490,516
5,1,1,0,0,491,518
6,1,1,0,0,492,515
7,1,1,0,0,493,519
8,1,1,0,0,494,516
9,1,1,0,0,495,516
10,1,1,0,0,497,519
11,1,1,0,0,498,514
12,1,1,0,0,499,519
13,1,1,0,0,501,515
14,1,1,0,0,504,515
15,1,1,0,0,506,516
0,1,1,0,0,507,518
1,1,1,0,0,506,515
2,1,1,0,0,505,515
3,1,1,0,0,504,515
4,1,1,0,0,505,516
5,1,1,0,0,504,514
6,1,1,0,0,502,516
7,1,1,0,0,501,513
8,1,1,0,0,501,513
9,1,1,0,0,500,515
10,1,1,0,0,499,516
11,1,1,0,0,497,514
12,1,1,0,0,496,512
13,1,1,0,0,496,512
14,1,1,0,0,494,514
15,1,1,0,0,494,515
0,1,1,0,0,494,511
1,1,1,0,0,494,511
2,1,1,0,0,494,512
3,1,1,0,0,495,514
4,1,1,0,0,496,513
5,1,1,0,0,496,513
6,1,1,0,0,497,516
7,1,1,0,0,498,511
8,1,1,0,0,498,512
9,1,1,0,0,499,513
10,1,1,0,0,499,511
11,1,1,0,0,500,509
12,1,1,0,0,501,509
13,1,1,0,0,503,511
14,1,1,0,0,505,510
15,1,1,0,0,508,511
0,1,1,0,0,511,510
1,1,1,0,0,513,508
2,1,1,0,0,514,511
3,1,1,0,0,515,511
4,1,1,0,0,516,509
5,1,1,0,0,519,509
6,1,1,0,0,519,508
7,1,1,0,0,519,507
8,1,1,0,0,516,512
9,1,1,0,0,514,506
10,1,1,0,0,512,507
11,1,1,0,0,509,507
12,1,1,0,0,508,508
13,1,1,0,0,505,508
14,1,1,0,0,502,507
15,1,1,0,0,499,505
0,1,1,0,0,499,506
1,1,1,0,0,499,508
2,1,1,0,0,501,509
3,1,1,0,0,503,506
4,1,1,0,0,505,507
5,1,1,0,0,508,505
6,1,1,0,0,509,508
7,1,1,0,0,510,505
8,1,1,0,0,512,509
9,1,1,0,0,513,505
10,1,1,0,0,515,505
11,1,1,0,0,519,510
12,1,1,0,0,521,507
13,1,1,0,0,522,506
14,1,1,0,0,520,504
15,1,1,0,0,518,505
0,1,1,0,0,515,507
1,1,1,0,0,511,507
2,1,1,0,0,508,504
3,1,1,0,0,505,504
4,1,1,0,0,504,505
5,1,1,0,0,503,507
6,1,1,0,0,501,506
7,1,1,0,0,500,504
8,1,1,0,0,500,505
9,1,1,0,0,500,504
10,1,1,0,0,502,503
11,1,1,0,0,502,507
12,1,1,0,0,503,505
13,1,1,0,0,504,503
14,1,1,0,0,505,504
15,1,1,0,0,505,505
0,1,1,0,0,507,506
1,1,1,0,0,506,503
2,1,1,0,0,506,504
3,1,1,0,0,505,504
4,1,1,0,0,505,505
5,1,1,0,0,506,506
6,1,1,0,0,507,504
7,1,1,0,0,507,503
8,1,1,0,0,507,505
9,1,1,0,0,508,508
10,1,1,0,0,508,503
11,1,1,0,0,508,507
12,1,1,0,0,511,504
13,1,1,0,0,512,504
14,1,1,0,0,511,506
15,1,1,0,0,511,508
0,1,1,0,0,510,505
1,1,1,0,0,510,505
2,1,1,0,0,510,504
3,1,1,0,0,510,504
4,1,1,0,0,509,508
5,1,1,0,0,508,506
6,1,1,0,0,508,504
7,1,1,0,0,508,505
8,1,1,0,0,510,507
9,1,1,0,0,511,508
10,1,1,0,0,513,507
11,1,1,0,0,514,504
12,1,1,0,0,514,504
13,1,1,0,0,515,507
14,1,1,0,0,516,507
15,1,1,0,0,518,504
0,1,1,0,0,521,504
1,1,1,0,0,523,504
2,1,1,0,0,524,507
3,1,1,0,0,525,507
4,1,1,0,0,524,505
5,1,1,0,0,522,505
6,1,1,0,0,520,505
7,1,1,0,0,518,510
8,1,1,0,0,516,504
9,1,1,0,0,513,509
10,1,1,0,0,511,505
11,1,1,0,0,511,505
12,1,1,0,0,510,508
13,1,1,0,0,508,508
14,1,1,0,0,508,507
15,1,1,0,0,506,505
0,1,1,0,0,504,505
1,1,1,0,0,502,508
2,1,1,0,0,502,505
3,1,1,0,0,501,510
4,1,1,0,0,501,506
5,1,1,0,0,503,506
6,1,1,0,0,504,506
7,1,1,0,0,507,510
8,1,1,0,0,510,508
9,1,1,0,0,513,507
10,1,1,0,0,515,506
11,1,1,0,0,517,509
12,1,1,0,0,518,509
13,1,1,0,0,518,508
14,1,1,0,0,517,507
15,1,1,0,0,515,506
0,1,1,0,0,514,508
1,1,1,0,0,513,509
2,1,1,0,0,512,507
3,1,1,0,0,511,508
4,1,1,0,0,510,507
5,1,1,0,0,509,507
6,1,1,0,0,508,511
7,1,1,0,0,508,508
8,1,1,0,0,508,511
9,1,1,0,0,510,507
10,1,1,0,0,511,509
11,1,1,0,0,513,510
12,1,1,0,0,514,510
13,1,1,0,0,514,508
14,1,1,0,0,514,509
15,1,1,0,0,515,510
0,1,1,0,0,514,511
1,1,1,0,0,515,510
2,1,1,0,0,514,509
3,1,1,0,0,514,508
4,1,1,0,0,514,511
5,1,1,0,0,513,511
6,1,1,0,0,513,510
7,1,1,0,0,512,510
8,1,1,0,0,512,510
9,1,1,0,0,512,509
10,1,1,0,0,512,514
11,1,1,0,0,512,509
12,1,1,0,0,513,510
13,1,1,0,0,515,510
14,1,1,0,0,515,512
15,1,1,0,0,516,509
0,1,1,0,0,516,512
1,1,1,0,0,516,509
2,1,1,0,0,515,510
3,1,1,0,0,514,513
4,1,1,0,0,514,512
5,1,1,0,0,514,511
6,1,1,0,0,515,510
7,1,1,0,0,515,510
8,1,1,0,0,516,512
9,1,1,0,0,516,510
10,1,1,0,0,518,514
11,1,1,0,0,520,509
12,1,1,0,0,522,510
13,1,1,0,0,523,512
14,1,1,0,0,524,513
15,1,1,0,0,524,512
0,1,1,0,0,523,510
1,1,1,0,0,523,511
2,1,1,0,0,522,512
3,1,1,0,0,520,510
4,1,1,0,0,518,514
5,1,1,0,0,516,511
6,1,1,0,0,516,511
7,1,1,0,0,515,515
8,1,1,0,0,516,511
9,1,1,0,0,515,513
10,1,1,0,0,514,510
11,1,1,0,0,513,511
12,1,1,0,0,512,513
13,1,1,0,0,512,513
14,1,1,0,0,511,513
15,1,1,0,0,510,512
0,1,1,0,0,511,511
1,1,1,0,0,511,514
2,1,1,0,0,512,513
3,1,1,0,0,511,511
4,1,1,0,0,511,512
5,1,1,0,0,510,511
6,1,1,0,0,509,511
7,1,1,0,0,509,516
8,1,1,0,0,508,512
9,1,1,0,0,507,516
10,1,1,0,0,507,511
11,1,1,0,0,507,513
12,1,1,0,0,507,514
13,1,1,0,0,508,513
14,1,1,0,0,508,511
15,1,1,0,0,509,511
0,1,1,0,0,509,513
1,1,1,0,0,509,513
2,1,1,0,0,509,512
3,1,1,0,0,509,512
4,1,1,0,0,510,512
5,1,1,0,0,511,514
6,1,1,0,0,513,511
7,1,1,0,0,513,516
8,1,1,0,0,514,512
9,1,1,0,0,514,512
10,1,1,0,0,516,514
11,1,1,0,0,516,514
12,1,1,0,0,518,513
13,1,1,0,0,518,511
14,1,1,0,0,519,511
15,1,1,0,0,519,513
0,1,1,0,0,519,514
1,1,1,0,0,519,511
2,1,1,0,0,519,512
3,1,1,0,0,519,511
4,1,1,0,0,518,513
5,1,1,0,0,517,511
6,1,1,0,0,515,515
7,1,1,0,0,514,511
8,1,1,0,0,512,511
9,1,1,0,0,511,515
10,1,1,0,0,511,513
11,1,1,0,0,511,512
12,1,1,0,0,513,510
13,1,1,0,0,515,511
14,1,1,0,0,517,512
15,1,1,0,0,520,513
0,1,1,0,0,523,511
1,1,1,0,0,526,510
2,1,1,0,0,527,510
3,1,1,0,0,527,514
4,1,1,0,0,525,512
5,1,1,0,0,523,511
6,1,1,0,0,519,515
7,1,1,0,0,514,511
8,1,1,0,0,511,512
9,1,1,0,0,508,513
10,1,1,0,0,505,511
11,1,1,0,0,503,509
12,1,1,0,0,501,509
13,1,1,0,0,500,511
14,1,1,0,0,499,511
15,1,1,0,0,499,510
0,1,1,0,0,501,510
1,1,1,0,0,503,509
2,1,1,0,0,506,511
3,1,1,0,0,509,511
4,1,1,0,0,512,509
5,1,1,0,0,515,508
6,1,1,0,0,517,510
7,1,1,0,0,518,513
8,1,1,0,0,518,508
9,1,1,0,0,517,512
10,1,1,0,0,515,508
11,1,1,0,0,513,508
12,1,1,0,0,511,510
13,1,1,0,0,507,511
14,1,1,0,0,505,510
15,1,1,0,0,502,507
0,1,1,0,0,499,508
1,1,1,0,0,498,510
2,1,1,0,0,496,510
3,1,1,0,0,496,507
4,1,1,0,0,496,509
5,1,1,0,0,497,507
6,1,1,0,0,498,511
7,1,1,0,0,499,509
8,1,1,0,0,502,506
9,1,1,0,0,503,506
10,1,1,0,0,504,506
11,1,1,0,0,505,508
12,1,1,0,0,507,507
13,1,1,0,0,508,505
14,1,1,0,0,509,505
15,1,1,0,0,511,505
0,1,1,0,0,511,507
1,1,1,0,0,511,504
2,1,1,0,0,511,508
3,1,1,0,0,511,507
4,1,1,0,0,511,505
5,1,1,0,0,512,507
6,1,1,0,0,513,507
7,1,1,0,0,514,503
8,1,1,0,0,514,504
9,1,1,0,0,514,504
10,1,1,0,0,514,506
11,1,1,0,0,514,504
12,1,1,0,0,515,502
13,1,1,0,0,514,503
14,1,1,0,0,515,503
15,1,1,0,0,515,505
0,1,1,0,0,516,505
1,1,1,0,0,518,503
2,1,1,0,0,520,504
3,1,1,0,0,522,503
4,1,1,0,0,524,505
5,1,1,0,0,524,506
6,1,1,0,0,524,503
7,1,1,0,0,524,503
8,1,1,0,0,522,502
9,1,1,0,0,521,505
10,1,1,0,0,520,500
11,1,1,0,0,517,505
12,1,1,0,0,515,503
13,1,1,0,0,514,502
14,1,1,0,0,514,504
15,1,1,0,0,514,505
0,1,1,0,0,514,503
1,1,1,0,0,512,504
2,1,1,0,0,512,503
3,1,1,0,0,510,505
4,1,1,0,0,508,505
5,1,1,0,0,507,503
6,1,1,0,0,505,504
7,1,1,0,0,504,504
8,1,1,0,0,504,507
9,1,1,0,0,504,504
10,1,1,0,0,504,502
11,1,1,0,0,504,503
12,1,1,0,0,504,502
13,1,1,0,0,505,502
14,1,1,0,0,506,506
15,1,1,0,0,507,504
0,1,1,0,0,507,507
1,1,1,0,0,508,503
2,1,1,0,0,510,504
3,1,1,0,0,511,508
4,1,1,0,0,512,505
5,1,1,0,0,512,509
6,1,1,0,0,512,503
7,1,1,0,0,510,503
8,1,1,0,0,509,508
9,1,1,0,0,508,505
10,1,1,0,0,508,509
11,1,1,0,0,509,504
12,1,1,0,0,509,504
13,1,1,0,0,510,508
14,1,1,0,0,510,505
15,1,1,0,0,511,509
0,1,1,0,0,511,505
1,1,1,0,0,513,504
2,1,1,0,0,514,509
3,1,1,0,0,515,507
4,1,1,0,0,517,505
5,1,1,0,0,519,505
6,1,1,0,0,524,508
7,1,1,0,0,528,508
8,1,1,0,0,531,507
9,1,1,0,0,534,510
10,1,1,0,0,536,505
11,1,1,0,0,536,507
12,1,1,0,0,536,508
13,1,1,0,0,536,507
14,1,1,0,0,535,505
15,1,1,0,0,535,505
0,1,1,0,0,534,508
1,1,1,0,0,533,505
2,1,1,0,0,532,511
3,1,1,0,0,530,506
4,1,1,0,0,528,507
5,1,1,0,0,527,505
6,1,1,0,0,527,510
7,1,1,0,0,528,507
8,1,1,0,0,529,510
9,1,1,0,0,530,506
10,1,1,0,0,531,509
11,1,1,0,0,531,509
12,1,1,0,0,532,508
13,1,1,0,0,532,506
14,1,1,0,0,532,507
15,1,1,0,0,532,509
0,1,1,0,0,531,508
1,1,1,0,0,531,508
2,1,1,0,0,530,508
3,1,1,0,0,528,506
4,1,1,0,0,526,508
5,1,1,0,0,524,509
6,1,1,0,0,521,508
7,1,1,0,0,519,508
8,1,1,0,0,515,507
9,1,1,0,0,512,506
10,1,1,0,0,509,512
11,1,1,0,0,508,508
12,1,1,0,0,507,506
13,1,1,0,0,507,506
14,1,1,0,0,508,508
15,1,1,0,0,509,510
0,1,1,0,0,510,508
